14.703109375	0.9716107671891228	7.61904420899172e-10
14.7930888671875	0.996805114543033	2.1213779139166125e-09
14.849630859375	0.996805114543033	5.757284007027194e-09
14.76869921875	0.9716107671891226	1.5229979744712682e-08
14.766607421875	0.9231163463866356	3.927019510784439e-08
14.6171484375	0.8548750167246695	9.869811391105965e-08
14.5187080078125	0.7716686738745262	2.417890947674731e-07
14.34819921875	0.6789552902885677	5.773599123465949e-07
14.303126953125	0.5822822402018133	1.343812277631526e-06
14.22474609375	0.48675225595997157	3.0486856336898723e-06
14.139740234375	0.3966107332899649	6.741689478400731e-06
14.149484375	0.31499453169676317	1.4531381583631438e-05
14.125865234375	0.24385048692652442	3.053002293467871e-05
14.1018974609375	0.1840035919677199	6.252150377482037e-05
14.0883720703125	0.1353352832366127	0.00012479976313343764
14.126783203125	0.09702370004128698	0.00024281760334162798
14.1012373046875	0.06779953109924779	0.00046049894189605176
14.1073662109375	0.04618039137973471	0.0008512540013105025
14.1326923828125	0.030659889794007474	0.0015338106793244715
14.091822265625	0.019841094744370298	0.002693806580421495
14.10072265625	0.01251534234122367	0.004611509662433051
14.0607158203125	0.007694880818387471	0.007694880818387493
14.074552734375	0.004611509662433039	0.012515342341223704
14.082095703125	0.0026938065804214878	0.01984109474437035
14.0518876953125	0.0015338106793244607	0.030659889794007626
14.0598349609375	0.0008512540013104993	0.046180391379734814
14.0270947265625	0.00046049894189605014	0.06779953109924793
14.0522373046875	0.00024281760334162714	0.09702370004128717
14.0013662109375	0.0001247997631334372	0.13533528323661292
14.0182861328125	6.252150377482015e-05	0.18400359196772018
14.0223779296875	3.0530022934678436e-05	0.24385048692652514
14.01397265625	1.4531381583631387e-05	0.31499453169676356
13.9818203125	6.741689478400708e-06	0.3966107332899654
13.955908203125	3.048685633689856e-06	0.48675225595997207
13.967322265625	1.343812277631519e-06	0.5822822402018138
13.9751767578125	5.773599123465918e-07	0.6789552902885686
13.979177734375	2.4178909476747177e-07	0.7716686738745268
13.9747001953125	9.86981139110593e-08	0.85487501672467
13.9887021484375	3.927019510784397e-08	0.9231163463866363
14.0370048828125	1.522997974471252e-08	0.9716107671891232
14.0457041015625	5.757284007027132e-09	0.9968051145430331
14.0856748046875	2.1213779139165976e-09	0.996805114543033
14.1284716796875	7.619044208991666e-10	0.9716107671891226
14.1697080078125	2.667257870669008e-10	0.9231163463866356
14.121185546875	9.101470764487969e-11	0.8548750167246694
14.10729296875	3.0271937126909755e-11	0.7716686738745258
14.01233984375	9.81410970406499e-12	0.6789552902885675
13.9410244140625	3.1012991859194074e-12	0.5822822402018127
13.905751953125	9.552531605297814e-13	0.486752255959971
13.89373046875	2.8679750088880877e-13	0.3966107332899643
13.870533203125	8.392943572505899e-14	0.3149945316967627
13.885068359375	2.394061514095652e-14	0.24385048692652406
13.8755625	6.6563840049803625e-15	0.1840035919677193
13.8988515625	1.8039458325928044e-15	0.1353352832366127
13.8939697265625	4.765304735299156e-16	0.09702370004128698
13.9054755859375	1.2269868983798635e-16	0.06779953109924779
13.91470703125	3.079436362031953e-17	0.04618039137973471
14.272369140625	7.533288557462739e-18	0.030659889794007474
15.190080078125	1.796304814270403e-18	0.019841094744370243
15.4624052734375	4.175010055850544e-19	0.012515342341223635
14.3448603515625	9.458386988221946e-20	0.007694880818387451
12.918615234375	0.019841094744370298	7.533288557462739e-18
13.446291015625	0.03065988979400756	3.079436362031953e-17
13.9432451171875	0.04618039137973475	1.2269868983798635e-16
14.065634765625	0.06779953109924783	4.765304735299156e-16
14.0647158203125	0.09702370004128709	1.8039458325928044e-15
14.093951171875	0.13533528323661276	6.65638400498055e-15
14.132728515625	0.1840035919677199	2.3940615140956863e-14
14.1626240234375	0.24385048692652475	8.392943572506018e-14
14.157833984375	0.31499453169676345	2.867975008888118e-13
14.1635791015625	0.3966107332899651	9.552531605297883e-13
14.2338671875	0.48675225595997185	3.101299185919429e-12
14.278150390625	0.5822822402018134	9.814109704065061e-12
14.3313525390625	0.678955290288568	3.0271937126909975e-11
14.39630078125	0.7716686738745263	9.101470764488001e-11
14.4857666015625	0.8548750167246698	2.667257870669027e-10
14.5943369140625	0.923116346386636	7.61904420899172e-10
14.6207265625	0.9716107671891228	2.1213779139166125e-09
14.755595703125	0.996805114543033	5.7572840070272345e-09
14.775453125	0.996805114543033	1.5229979744712682e-08
14.7385107421875	0.9716107671891226	3.927019510784439e-08
14.6861884765625	0.9231163463866356	9.869811391106034e-08
14.560091796875	0.8548750167246695	2.417890947674731e-07
14.41896484375	0.7716686738745262	5.773599123465949e-07
14.2849404296875	0.6789552902885677	1.343812277631526e-06
14.14225390625	0.5822822402018133	3.0486856336898723e-06
14.0673046875	0.48675225595997157	6.741689478400731e-06
13.976259765625	0.3966107332899649	1.4531381583631438e-05
13.9656708984375	0.31499453169676317	3.053002293467871e-05
13.948419921875	0.24385048692652442	6.25215037748206e-05
13.9245810546875	0.1840035919677199	0.00012479976313343764
13.9299951171875	0.1353352832366127	0.00024281760334162798
13.9326552734375	0.09702370004128698	0.00046049894189605176
13.9428779296875	0.06779953109924779	0.0008512540013105025
13.9287646484375	0.04618039137973471	0.0015338106793244715
13.9379775390625	0.030659889794007474	0.002693806580421505
13.9473916015625	0.019841094744370298	0.004611509662433051
13.9309853515625	0.01251534234122367	0.007694880818387493
13.93531640625	0.007694880818387471	0.012515342341223704
13.9514853515625	0.004611509662433039	0.01984109474437035
13.94328125	0.0026938065804214878	0.030659889794007626
13.9469150390625	0.0015338106793244607	0.04618039137973492
13.938509765625	0.0008512540013104993	0.06779953109924793
13.9257001953125	0.00046049894189605014	0.09702370004128717
13.92280078125	0.00024281760334162714	0.13533528323661292
13.907384765625	0.0001247997631334372	0.18400359196772018
13.9006865234375	6.252150377482015e-05	0.24385048692652514
13.8944287109375	3.0530022934678436e-05	0.314994531696764
13.8905927734375	1.4531381583631387e-05	0.3966107332899654
13.885673828125	6.741689478400708e-06	0.48675225595997207
13.869873046875	3.048685633689856e-06	0.5822822402018138
13.8735068359375	1.343812277631519e-06	0.6789552902885686
13.8662763671875	5.773599123465918e-07	0.7716686738745268
13.8671572265625	2.4178909476747177e-07	0.85487501672467
13.882517578125	9.86981139110593e-08	0.9231163463866363
13.896005859375	3.927019510784397e-08	0.9716107671891232
13.9362705078125	1.522997974471252e-08	0.9968051145430331
13.9677080078125	5.757284007027132e-09	0.9968051145430329
13.9952724609375	2.1213779139165976e-09	0.9716107671891226
14.03368359375	7.619044208991666e-10	0.9231163463866356
14.046345703125	2.667257870669008e-10	0.8548750167246694
14.017056640625	9.101470764487969e-11	0.7716686738745258
13.9779853515625	3.0271937126909755e-11	0.6789552902885675
13.8972177734375	9.81410970406499e-12	0.5822822402018127
13.8482919921875	3.1012991859194074e-12	0.486752255959971
13.8108896484375	9.552531605297814e-13	0.3966107332899643
13.79488671875	2.8679750088880877e-13	0.3149945316967627
13.793529296875	8.392943572505899e-14	0.24385048692652406
13.7949794921875	2.394061514095652e-14	0.1840035919677193
13.79398828125	6.6563840049803625e-15	0.1353352832366122
13.802375	1.8039458325928044e-15	0.09702370004128698
13.788958984375	4.765304735299156e-16	0.06779953109924779
13.8364912109375	1.2269868983798635e-16	0.04618039137973471
13.8511357421875	3.079436362031953e-17	0.030659889794007474
14.28147265625	7.533288557462739e-18	0.019841094744370243
15.0439794921875	1.796304814270403e-18	0.012515342341223635
15.1465302734375	4.175010055850544e-19	0.007694880818387451
13.729205078125	9.458386988221946e-20	0.004611509662433027
12.9045029296875	0.019841094744370298	7.533288557462739e-18
13.5512275390625	0.03065988979400756	3.079436362031953e-17
13.90740234375	0.04618039137973475	1.2269868983798635e-16
13.9905927734375	0.06779953109924783	4.765304735299156e-16
14.01239453125	0.09702370004128709	1.8039458325928044e-15
14.0387666015625	0.13533528323661276	6.65638400498055e-15
14.0633037109375	0.1840035919677199	2.3940615140956863e-14
14.077783203125	0.24385048692652475	8.392943572506018e-14
14.1229658203125	0.31499453169676345	2.867975008888118e-13
14.1572841796875	0.3966107332899651	9.552531605297883e-13
14.1923544921875	0.48675225595997185	3.101299185919429e-12
14.2444375	0.5822822402018134	9.814109704065061e-12
14.31149609375	0.678955290288568	3.0271937126909975e-11
14.38268359375	0.7716686738745263	9.101470764488001e-11
14.4701669921875	0.8548750167246698	2.667257870669027e-10
14.5638173828125	0.923116346386636	7.61904420899172e-10
14.6562568359375	0.9716107671891228	2.1213779139166125e-09
14.71015625	0.996805114543033	5.7572840070272345e-09
14.7456494140625	0.996805114543033	1.5229979744712682e-08
14.7358125	0.9716107671891226	3.927019510784439e-08
14.6697998046875	0.9231163463866356	9.869811391106034e-08
14.54146484375	0.8548750167246695	2.417890947674731e-07
14.3833251953125	0.7716686738745262	5.773599123465949e-07
14.235353515625	0.6789552902885677	1.343812277631526e-06
14.1265078125	0.5822822402018133	3.0486856336898723e-06
14.0576875	0.48675225595997157	6.741689478400731e-06
14.0104501953125	0.3966107332899649	1.4531381583631438e-05
13.987693359375	0.31499453169676317	3.053002293467871e-05
13.971763671875	0.24385048692652442	6.25215037748206e-05
13.9634501953125	0.1840035919677199	0.00012479976313343764
13.9655419921875	0.1353352832366127	0.00024281760334162798
13.9576689453125	0.09702370004128698	0.00046049894189605176
13.9476123046875	0.06779953109924779	0.0008512540013105025
13.935720703125	0.04618039137973471	0.0015338106793244715
13.94188671875	0.030659889794007474	0.002693806580421505
13.93994140625	0.019841094744370298	0.004611509662433051
13.94296875	0.01251534234122367	0.007694880818387493
13.9309306640625	0.007694880818387471	0.012515342341223704
13.9311689453125	0.004611509662433039	0.01984109474437035
13.9193505859375	0.0026938065804214878	0.030659889794007626
13.9073662109375	0.0015338106793244607	0.04618039137973492
13.898630859375	0.0008512540013104993	0.06779953109924793
13.8835634765625	0.00046049894189605014	0.09702370004128717
13.864458984375	0.00024281760334162714	0.13533528323661292
13.841427734375	0.0001247997631334372	0.18400359196772018
13.8272421875	6.252150377482015e-05	0.24385048692652514
13.8090361328125	3.0530022934678436e-05	0.314994531696764
13.7915283203125	1.4531381583631387e-05	0.3966107332899654
13.772736328125	6.741689478400708e-06	0.48675225595997207
13.752916015625	3.048685633689856e-06	0.5822822402018138
13.742529296875	1.343812277631519e-06	0.6789552902885686
13.72558984375	5.773599123465918e-07	0.7716686738745268
13.703328125	2.4178909476747177e-07	0.85487501672467
13.6815263671875	9.86981139110593e-08	0.9231163463866363
13.66207421875	3.927019510784397e-08	0.9716107671891232
13.6425654296875	1.522997974471252e-08	0.9968051145430331
13.6398671875	5.757284007027132e-09	0.9968051145430329
13.637169921875	2.1213779139165976e-09	0.9716107671891226
13.6688642578125	7.619044208991666e-10	0.9231163463866356
13.6721669921875	2.667257870669008e-10	0.8548750167246694
13.685435546875	9.101470764487969e-11	0.7716686738745258
13.7048154296875	3.0271937126909755e-11	0.6789552902885675
13.6979150390625	9.81410970406499e-12	0.5822822402018127
13.65245703125	3.1012991859194074e-12	0.486752255959971
13.582462890625	9.552531605297814e-13	0.3966107332899643
13.4909599609375	2.8679750088880877e-13	0.3149945316967627
13.4313154296875	8.392943572505899e-14	0.24385048692652406
13.36833203125	2.394061514095652e-14	0.1840035919677193
13.3374814453125	6.6563840049803625e-15	0.1353352832366122
13.3188916015625	1.8039458325928044e-15	0.09702370004128698
13.3089443359375	4.765304735299156e-16	0.06779953109924779
13.2896376953125	1.2269868983798635e-16	0.04618039137973471
13.269689453125	3.079436362031953e-17	0.030659889794007474
13.24619921875	7.533288557462739e-18	0.019841094744370243
13.25908203125	1.796304814270403e-18	0.012515342341223635
13.27664453125	4.175010055850544e-19	0.007694880818387451
13.6251494140625	9.458386988221946e-20	0.004611509662433027
14.4181767578125	2.0886164474088106e-20	0.0026938065804214782
14.5017509765625	4.4955452089185905e-21	0.0015338106793244565
13.1251494140625	9.431659347155082e-22	0.0008512540013104941
12.2326171875	0.019841094744370298	8.687774147040263e-19
12.835462890625	0.03065988979400756	3.6903882668765605e-18
13.1947587890625	0.04618039137973475	1.5279799682872937e-17
13.260697265625	0.06779953109924783	6.16659351490994e-17
13.2621650390625	0.09702370004128709	2.4258002935511285e-16
13.2651015625	0.13533528323661276	9.301368016640084e-16
13.281306640625	0.1840035919677199	3.476327411194989e-15
13.2834169921875	0.24385048692652475	1.2664165549094176e-14
13.3001533203125	0.31499453169676345	4.4969136320232955e-14
13.32527734375	0.3966107332899651	1.5564478550463747e-13
13.351576171875	0.48675225595997185	5.250935277974171e-13
13.38631640625	0.5822822402018134	1.72671561546875e-12
13.429021484375	0.678955290288568	5.534610071700974e-12
13.48815234375	0.7716686738745263	1.7291604867152204e-11
13.56528515625	0.8548750167246698	5.2658154923891826e-11
13.6381796875	0.923116346386636	1.5630685836019022e-10
13.708779296875	0.9716107671891228	4.522436647695059e-10
13.7577978515625	0.996805114543033	1.2754076295260396e-09
13.7868671875	0.996805114543033	3.5059651170419904e-09
13.77106640625	0.9716107671891226	9.39394973604947e-09
13.7160654296875	0.9231163463866356	2.4534145397154446e-08
13.5969599609375	0.8548750167246695	6.245622035317678e-08
13.4539990234375	0.7716686738745262	1.549753135702883e-07
13.308962890625	0.6789552902885677	3.7482746881752084e-07
13.2132197265625	0.5822822402018133	8.836542241315566e-07
13.1410244140625	0.48675225595997157	2.0305578494036726e-06
13.09925390625	0.3966107332899649	4.548104523682639e-06
13.0760390625	0.31499453169676317	9.929504305851047e-06
13.0531171875	0.24385048692652442	2.113035343044194e-05
13.0638720703125	0.1840035919677199	4.382965126946289e-05
13.056916015625	0.1353352832366127	8.861583426604892e-05
13.0505302734375	0.09702370004128698	0.00017463717883977855
13.053484375	0.06779953109924779	0.0003354626279025107
13.0581455078125	0.04618039137973471	0.0006281070149764959
13.0691748046875	0.030659889794007474	0.0011463182433300535
13.071158203125	0.019841094744370298	0.00203919531984227
13.084755859375	0.01251534234122367	0.00353585550150756
13.0990703125	0.007694880818387471	0.005976022895005923
13.1035859375	0.004611509662433039	0.009844916976392417
13.10571484375	0.0026938065804214878	0.015808618705241806
13.11817578125	0.0015338106793244607	0.02474331320515426
13.1233134765625	0.0008512540013104993	0.037748860091298846
13.1205791015625	0.00046049894189605014	0.05613476283413355
13.1317744140625	0.00024281760334162714	0.0813658196645251
13.133462890625	0.0001247997631334372	0.11495667048603483
13.1314990234375	6.252150377482015e-05	0.15831002262193852
13.137537109375	3.0530022934678436e-05	0.21250282427502182
13.1411884765625	1.4531381583631387e-05	0.2780373004531935
13.1471533203125	6.741689478400708e-06	0.3545875485608983
13.1513740234375	3.048685633689856e-06	0.4407841408053239
13.1572470703125	1.343812277631519e-06	0.5340851477595165
13.1645693359375	5.773599123465918e-07	0.6307788205474278
13.17506640625	2.4178909476747177e-07	0.7261490370736906
13.1842607421875	9.86981139110593e-08	0.8148102621687291
13.201015625	3.927019510784397e-08	0.8911878885041843
13.209017578125	1.522997974471252e-08	0.9500886338026269
13.2117333984375	5.757284007027132e-09	0.9872815715902905
13.2242685546875	2.1213779139165976e-09	1.0
13.2464013671875	7.619044208991666e-10	0.9872815715902907
13.287931640625	2.667257870669008e-10	0.9500886338026274
13.3397392578125	9.101470764487969e-11	0.8911878885041852
13.3989423828125	3.0271937126909755e-11	0.8148102621687301
13.427076171875	9.81410970406499e-12	0.7261490370736916
13.4923916015625	3.1012991859194074e-12	0.6307788205474288
13.4918037109375	9.552531605297814e-13	0.5340851477595175
13.4689921875	2.8679750088880877e-13	0.4407841408053249
13.4157900390625	8.392943572505899e-14	0.3545875485608993
13.3790673828125	2.394061514095652e-14	0.2780373004531943
13.32569921875	6.6563840049803625e-15	0.21250282427502212
13.3108349609375	1.8039458325928044e-15	0.15831002262193933
13.31833984375	4.765304735299156e-16	0.11495667048603549
13.3317373046875	1.2269868983798635e-16	0.08136581966452558
13.343923828125	3.079436362031953e-17	0.0561347628341339
13.3615595703125	7.533288557462739e-18	0.037748860091299116
13.37196484375	1.796304814270403e-18	0.024743313205154382
13.3935654296875	4.175010055850544e-19	0.015808618705241893
13.4486396484375	9.458386988221946e-20	0.009844916976392469
13.497841796875	2.0886164474088106e-20	0.005976022895005958
14.145447265625	4.4955452089185905e-21	0.0035358555015075816
14.8079169921875	9.431659347155082e-22	0.0020391953198422826
14.6397216796875	1.9287498479639178e-22	0.0011463182433300576
13.0278828125	3.844552221631988e-23	0.0006281070149764975
12.82048828125	0.019841094744370298	1.9935495969983193e-19
13.3665322265625	0.03065988979400756	8.687774147040263e-19
13.635591796875	0.04618039137973475	3.6903882668765605e-18
13.703623046875	0.06779953109924783	1.5279799682872937e-17
13.7292607421875	0.09702370004128709	6.16659351490994e-17
13.770056640625	0.13533528323661276	2.4258002935511285e-16
13.7973466796875	0.1840035919677199	9.301368016640084e-16
13.837115234375	0.24385048692652475	3.476327411194989e-15
13.877177734375	0.31499453169676345	1.2664165549093996e-14
13.92474609375	0.3966107332899651	4.496913632023264e-14
13.9752138671875	0.48675225595997185	1.5564478550463747e-13
14.0416845703125	0.5822822402018134	5.250935277974171e-13
14.1246357421875	0.678955290288568	1.72671561546875e-12
14.2026494140625	0.7716686738745263	5.534610071700974e-12
14.2969794921875	0.8548750167246698	1.7291604867152204e-11
14.3953828125	0.923116346386636	5.2658154923891826e-11
14.4860966796875	0.9716107671891228	1.5630685836019022e-10
14.55392578125	0.996805114543033	4.522436647695059e-10
14.5843359375	0.996805114543033	1.2754076295260353e-09
14.5793798828125	0.9716107671891226	3.5059651170419904e-09
14.5214423828125	0.9231163463866356	9.39394973604947e-09
14.422287109375	0.8548750167246695	2.4534145397154363e-08
14.29751171875	0.7716686738745262	6.245622035317678e-08
14.1853623046875	0.6789552902885677	1.549753135702883e-07
14.0930341796875	0.5822822402018133	3.7482746881752084e-07
14.04772265625	0.48675225595997157	8.836542241315566e-07
14.021369140625	0.3966107332899649	2.0305578494036726e-06
14.0036591796875	0.31499453169676317	4.548104523682639e-06
14.0151298828125	0.24385048692652442	9.929504305851047e-06
14.0225439453125	0.1840035919677199	2.113035343044186e-05
14.0278837890625	0.1353352832366127	4.382965126946289e-05
14.0403818359375	0.09702370004128698	8.861583426604892e-05
14.04414453125	0.06779953109924779	0.00017463717883977855
14.0534853515625	0.04618039137973471	0.0003354626279025107
14.08273828125	0.030659889794007474	0.0006281070149764959
14.0937861328125	0.019841094744370298	0.0011463182433300494
14.098888671875	0.01251534234122367	0.00203919531984227
14.115275390625	0.007694880818387471	0.00353585550150756
14.1337021484375	0.004611509662433039	0.005976022895005923
14.1384541015625	0.0026938065804214878	0.009844916976392417
14.143134765625	0.0015338106793244607	0.015808618705241806
14.1613583984375	0.0008512540013104993	0.024743313205154195
14.1691572265625	0.00046049894189605014	0.037748860091298846
14.1688642578125	0.00024281760334162714	0.05613476283413355
14.1808662109375	0.0001247997631334372	0.0813658196645251
14.181435546875	6.252150377482015e-05	0.11495667048603483
14.18820703125	3.0530022934678436e-05	0.15831002262193852
14.188537109375	1.4531381583631387e-05	0.21250282427502146
14.197052734375	6.741689478400708e-06	0.2780373004531935
14.1983193359375	3.048685633689856e-06	0.3545875485608983
14.2104677734375	1.343812277631519e-06	0.4407841408053239
14.2241767578125	5.773599123465918e-07	0.5340851477595165
14.2247822265625	2.4178909476747177e-07	0.6307788205474278
14.2409501953125	9.86981139110593e-08	0.7261490370736906
14.2405107421875	3.927019510784397e-08	0.8148102621687291
14.27101171875	1.522997974471252e-08	0.8911878885041843
14.297603515625	5.757284007027132e-09	0.9500886338026269
14.3517412109375	2.1213779139165976e-09	0.9872815715902902
14.4002646484375	7.619044208991666e-10	1.0
14.4229833984375	2.667257870669008e-10	0.9872815715902907
14.486244140625	9.101470764487969e-11	0.9500886338026274
14.4994384765625	3.0271937126909755e-11	0.8911878885041852
14.487033203125	9.81410970406499e-12	0.8148102621687301
14.4346376953125	3.1012991859194074e-12	0.7261490370736916
14.3883173828125	9.552531605297814e-13	0.6307788205474288
14.3381435546875	2.8679750088880877e-13	0.5340851477595175
14.33373828125	8.392943572505899e-14	0.4407841408053249
14.329388671875	2.394061514095652e-14	0.3545875485608993
14.3481259765625	6.6563840049803625e-15	0.2780373004531943
14.3587333984375	1.8039458325928044e-15	0.21250282427502282
14.3767919921875	4.765304735299156e-16	0.15831002262193933
14.385435546875	1.2269868983798635e-16	0.11495667048603549
14.3950888671875	3.079436362031953e-17	0.08136581966452558
14.46066015625	7.533288557462739e-18	0.0561347628341339
14.499603515625	1.796304814270403e-18	0.037748860091299116
15.0492099609375	4.175010055850544e-19	0.024743313205154382
15.9257373046875	9.458386988221946e-20	0.015808618705241893
15.9000458984375	2.0886164474088106e-20	0.009844916976392469
14.4088525390625	4.4955452089185905e-21	0.005976022895005958
13.6202490234375	0.019841094744370298	1.796304814270403e-18
14.2119736328125	0.03065988979400756	7.533288557462739e-18
14.6009248046875	0.04618039137973475	3.079436362031953e-17
14.697640625	0.06779953109924783	1.2269868983798635e-16
14.719791015625	0.09702370004128709	4.765304735299156e-16
14.7574501953125	0.13533528323661276	1.8039458325928044e-15
14.790849609375	0.1840035919677199	6.65638400498055e-15
14.829333984375	0.24385048692652475	2.3940615140956863e-14
14.8692314453125	0.31499453169676345	8.392943572506018e-14
14.9096240234375	0.3966107332899651	2.867975008888098e-13
14.9760771484375	0.48675225595997185	9.552531605297883e-13
15.0271865234375	0.5822822402018134	3.101299185919429e-12
15.095181640625	0.678955290288568	9.814109704065061e-12
15.1818212890625	0.7716686738745263	3.0271937126909975e-11
15.275048828125	0.8548750167246698	9.101470764488001e-11
15.3746455078125	0.923116346386636	2.667257870669027e-10
15.461615234375	0.9716107671891228	7.61904420899172e-10
15.5314267578125	0.996805114543033	2.1213779139166125e-09
15.5720947265625	0.996805114543033	5.757284007027194e-09
15.5672314453125	0.9716107671891226	1.5229979744712682e-08
15.5206171875	0.9231163463866356	3.927019510784439e-08
15.4111103515625	0.8548750167246695	9.869811391105965e-08
15.262404296875	0.7716686738745262	2.417890947674731e-07
15.126435546875	0.6789552902885677	5.773599123465949e-07
15.0246728515625	0.5822822402018133	1.343812277631526e-06
14.9689931640625	0.48675225595997157	3.0486856336898723e-06
14.936234375	0.3966107332899649	6.741689478400731e-06
14.92469140625	0.31499453169676317	1.4531381583631438e-05
14.9254248046875	0.24385048692652442	3.053002293467871e-05
14.936234375	0.1840035919677199	6.252150377482037e-05
14.9394462890625	0.1353352832366127	0.00012479976313343764
14.9414833984375	0.09702370004128698	0.00024281760334162798
14.9550458984375	0.06779953109924779	0.00046049894189605176
14.96023828125	0.04618039137973471	0.0008512540013105025
14.9731591796875	0.030659889794007474	0.0015338106793244715
14.990556640625	0.019841094744370298	0.002693806580421495
14.9963193359375	0.01251534234122367	0.004611509662433051
15.0073486328125	0.007694880818387471	0.007694880818387493
15.01186328125	0.004611509662433039	0.012515342341223704
15.0205439453125	0.0026938065804214878	0.01984109474437035
15.0319765625	0.0015338106793244607	0.030659889794007626
15.03696875	0.0008512540013104993	0.046180391379734814
15.0346015625	0.00046049894189605014	0.06779953109924793
15.0380703125	0.00024281760334162714	0.09702370004128717
15.0435205078125	0.0001247997631334372	0.13533528323661292
15.0482548828125	6.252150377482015e-05	0.18400359196772018
15.053357421875	3.0530022934678436e-05	0.24385048692652514
15.045685546875	1.4531381583631387e-05	0.31499453169676356
15.056	6.741689478400708e-06	0.3966107332899654
15.0680205078125	3.048685633689856e-06	0.48675225595997207
15.0545859375	1.343812277631519e-06	0.5822822402018138
15.075599609375	5.773599123465918e-07	0.6789552902885686
15.0753974609375	2.4178909476747177e-07	0.7716686738745268
15.0886298828125	9.86981139110593e-08	0.85487501672467
15.10250390625	3.927019510784397e-08	0.9231163463866363
15.1234609375	1.522997974471252e-08	0.9716107671891232
15.157119140625	5.757284007027132e-09	0.9968051145430331
15.201310546875	2.1213779139165976e-09	0.996805114543033
15.2467685546875	7.619044208991666e-10	0.9716107671891226
15.292556640625	2.667257870669008e-10	0.9231163463866356
15.3421806640625	9.101470764487969e-11	0.8548750167246694
15.3166904296875	3.0271937126909755e-11	0.7716686738745258
15.2970166015625	9.81410970406499e-12	0.6789552902885675
15.22280078125	3.1012991859194074e-12	0.5822822402018127
15.1907216796875	9.552531605297814e-13	0.486752255959971
15.1410244140625	2.8679750088880877e-13	0.3966107332899643
15.1405478515625	8.392943572505899e-14	0.3149945316967627
15.1382353515625	2.394061514095652e-14	0.24385048692652406
15.1531923828125	6.6563840049803625e-15	0.1840035919677193
15.167947265625	1.8039458325928044e-15	0.1353352832366127
15.17326953125	4.765304735299156e-16	0.09702370004128698
15.1948505859375	1.2269868983798635e-16	0.06779953109924779
15.2051826171875	3.079436362031953e-17	0.04618039137973471
15.268919921875	7.533288557462739e-18	0.030659889794007474
15.57058984375	1.796304814270403e-18	0.019841094744370243
16.46706640625	4.175010055850544e-19	0.012515342341223635
16.761158203125	9.458386988221946e-20	0.007694880818387451
15.8481630859375	2.0886164474088106e-20	0.004611509662433027
14.3977509765625	0.019841094744370298	3.6903882668765605e-18
14.8521640625	0.03065988979400756	1.5279799682872937e-17
15.3769208984375	0.04618039137973475	6.16659351490994e-17
15.513423828125	0.06779953109924783	2.4258002935511285e-16
15.5495400390625	0.09702370004128709	9.301368016640084e-16
15.583087890625	0.13533528323661276	3.476327411194989e-15
15.6087802734375	0.1840035919677199	1.2664165549094176e-14
15.6525126953125	0.24385048692652475	4.4969136320232955e-14
15.6828310546875	0.31499453169676345	1.55644785504638e-13
15.724673828125	0.3966107332899651	5.250935277974171e-13
15.769837890625	0.48675225595997185	1.72671561546875e-12
15.818966796875	0.5822822402018134	5.534610071700974e-12
15.8878046875	0.678955290288568	1.7291604867152204e-11
15.9629375	0.7716686738745263	5.2658154923891826e-11
16.056716796875	0.8548750167246698	1.5630685836019022e-10
16.147302734375	0.923116346386636	4.522436647695059e-10
16.25176171875	0.9716107671891228	1.2754076295260396e-09
16.3295546875	0.996805114543033	3.505965117042003e-09
16.3789033203125	0.996805114543033	9.39394973604947e-09
16.3894375	0.9716107671891226	2.4534145397154446e-08
16.3507890625	0.9231163463866356	6.245622035317723e-08
16.2504580078125	0.8548750167246695	1.549753135702883e-07
16.1137919921875	0.7716686738745262	3.7482746881752084e-07
15.96049609375	0.6789552902885677	8.836542241315566e-07
15.8467685546875	0.5822822402018133	2.0305578494036726e-06
15.766369140625	0.48675225595997157	4.548104523682639e-06
15.717919921875	0.3966107332899649	9.929504305851047e-06
15.7254267578125	0.31499453169676317	2.113035343044194e-05
15.72085546875	0.24385048692652442	4.382965126946305e-05
15.6493017578125	0.1840035919677199	8.861583426604892e-05
15.7229306640625	0.1353352832366127	0.00017463717883977855
15.62548046875	0.09702370004128698	0.0003354626279025107
15.632638671875	0.06779953109924779	0.0006281070149764959
15.6601298828125	0.04618039137973471	0.0011463182433300535
15.6895107421875	0.030659889794007474	0.002039195319842277
15.730857421875	0.019841094744370298	0.00353585550150756
15.686720703125	0.01251534234122367	0.005976022895005923
15.664369140625	0.007694880818387471	0.009844916976392417
15.6832900390625	0.004611509662433039	0.015808618705241806
15.72531640625	0.0026938065804214878	0.02474331320515426
15.6718193359375	0.0015338106793244607	0.03774886009129893
15.6793076171875	0.0008512540013104993	0.05613476283413355
15.69921875	0.00046049894189605014	0.0813658196645251
15.708873046875	0.00024281760334162714	0.11495667048603483
15.6782978515625	0.0001247997631334372	0.15831002262193852
15.6751962890625	6.252150377482015e-05	0.21250282427502182
15.686390625	3.0530022934678436e-05	0.27803730045319386
15.696173828125	1.4531381583631387e-05	0.3545875485608983
15.6697275390625	6.741689478400708e-06	0.4407841408053239
15.640400390625	3.048685633689856e-06	0.5340851477595165
15.656404296875	1.343812277631519e-06	0.6307788205474278
15.6357939453125	5.773599123465918e-07	0.7261490370736906
15.6267099609375	2.4178909476747177e-07	0.8148102621687291
15.6220859375	9.86981139110593e-08	0.8911878885041843
15.65066015625	3.927019510784397e-08	0.9500886338026269
15.7511181640625	1.522997974471252e-08	0.9872815715902905
15.7316103515625	5.757284007027132e-09	1.0
15.785474609375	2.1213779139165976e-09	0.9872815715902907
15.7869775390625	7.619044208991666e-10	0.9500886338026274
15.7779677734375	2.667257870669008e-10	0.8911878885041852
15.705935546875	9.101470764487969e-11	0.8148102621687301
15.719205078125	3.0271937126909755e-11	0.7261490370736916
15.6533759765625	9.81410970406499e-12	0.6307788205474288
15.59041015625	3.1012991859194074e-12	0.5340851477595175
15.5445849609375	9.552531605297814e-13	0.4407841408053249
15.54025390625	2.8679750088880877e-13	0.3545875485608993
15.5408955078125	8.392943572505899e-14	0.2780373004531943
15.5259765625	2.394061514095652e-14	0.21250282427502212
15.4969619140625	6.6563840049803625e-15	0.15831002262193877
15.5111474609375	1.8039458325928044e-15	0.11495667048603549
15.511955078125	4.765304735299156e-16	0.08136581966452558
15.56378125	1.2269868983798635e-16	0.0561347628341339
15.5609736328125	3.079436362031953e-17	0.037748860091299116
16.0862451171875	7.533288557462739e-18	0.024743313205154382
16.71443359375	1.796304814270403e-18	0.015808618705241893
16.72353515625	4.175010055850544e-19	0.009844916976392469
15.224416015625	9.458386988221946e-20	0.005976022895005958
14.675892578125	0.019841094744370298	7.533288557462739e-18
15.325150390625	0.03065988979400756	3.079436362031953e-17
15.609955078125	0.04618039137973475	1.2269868983798635e-16
15.6267841796875	0.06779953109924783	4.765304735299156e-16
15.6066884765625	0.09702370004128709	1.8039458325928044e-15
15.6126708984375	0.13533528323661276	6.65638400498055e-15
15.65455078125	0.1840035919677199	2.3940615140956863e-14
15.6472099609375	0.24385048692652475	8.392943572506018e-14
15.67490234375	0.31499453169676345	2.867975008888118e-13
15.6798212890625	0.3966107332899651	9.552531605297883e-13
15.7357587890625	0.48675225595997185	3.101299185919429e-12
15.778279296875	0.5822822402018134	9.814109704065061e-12
15.828453125	0.678955290288568	3.0271937126909975e-11
15.8486591796875	0.7716686738745263	9.101470764488001e-11
15.9015673828125	0.8548750167246698	2.667257870669027e-10
16.0516689453125	0.923116346386636	7.61904420899172e-10
16.1377958984375	0.9716107671891228	2.1213779139166125e-09
16.1882802734375	0.996805114543033	5.7572840070272345e-09
16.1725546875	0.996805114543033	1.5229979744712682e-08
16.152404296875	0.9716107671891226	3.927019510784439e-08
16.0884833984375	0.9231163463866356	9.869811391106034e-08
15.9642587890625	0.8548750167246695	2.417890947674731e-07
15.7873466796875	0.7716686738745262	5.773599123465949e-07
15.656533203125	0.6789552902885677	1.343812277631526e-06
15.547044921875	0.5822822402018133	3.0486856336898723e-06
15.469984375	0.48675225595997157	6.741689478400731e-06
15.4800595703125	0.3966107332899649	1.4531381583631438e-05
15.4362900390625	0.31499453169676317	3.053002293467871e-05
15.414212890625	0.24385048692652442	6.25215037748206e-05
15.393859375	0.1840035919677199	0.00012479976313343764
15.3967958984375	0.1353352832366127	0.00024281760334162798
15.3932734375	0.09702370004128698	0.00046049894189605176
15.40566015625	0.06779953109924779	0.0008512540013105025
15.4205078125	0.04618039137973471	0.0015338106793244715
15.427224609375	0.030659889794007474	0.002693806580421505
15.423443359375	0.019841094744370298	0.004611509662433051
15.439703125	0.01251534234122367	0.007694880818387493
15.43594140625	0.007694880818387471	0.012515342341223704
15.4771416015625	0.004611509662433039	0.01984109474437035
15.4594140625	0.0026938065804214878	0.030659889794007626
15.4567158203125	0.0015338106793244607	0.04618039137973492
15.450990234375	0.0008512540013104993	0.06779953109924793
15.4446591796875	0.00046049894189605014	0.09702370004128717
15.45198046875	0.00024281760334162714	0.13533528323661292
15.446328125	0.0001247997631334372	0.18400359196772018
15.4453564453125	6.252150377482015e-05	0.24385048692652514
15.4400341796875	3.0530022934678436e-05	0.314994531696764
15.4521640625	1.4531381583631387e-05	0.3966107332899654
15.454513671875	6.741689478400708e-06	0.48675225595997207
15.4386025390625	3.048685633689856e-06	0.5822822402018138
15.46858984375	1.343812277631519e-06	0.6789552902885686
15.4689013671875	5.773599123465918e-07	0.7716686738745268
15.5318671875	2.4178909476747177e-07	0.85487501672467
15.558203125	9.86981139110593e-08	0.9231163463866363
15.613349609375	3.927019510784397e-08	0.9716107671891232
15.6716181640625	1.522997974471252e-08	0.9968051145430331
15.67916015625	5.757284007027132e-09	0.9968051145430329
15.69593359375	2.1213779139165976e-09	0.9716107671891226
15.6714150390625	7.619044208991666e-10	0.9231163463866356
15.566828125	2.667257870669008e-10	0.8548750167246694
15.5242880859375	9.101470764487969e-11	0.7716686738745258
15.5003203125	3.0271937126909755e-11	0.6789552902885675
15.5068349609375	9.81410970406499e-12	0.5822822402018127
15.4995859375	3.1012991859194074e-12	0.486752255959971
15.5070185546875	9.552531605297814e-13	0.3966107332899643
15.526380859375	2.8679750088880877e-13	0.3149945316967627
15.5382900390625	8.392943572505899e-14	0.24385048692652406
15.5389326171875	2.394061514095652e-14	0.1840035919677193
15.61144140625	6.6563840049803625e-15	0.1353352832366122
15.63959375	1.8039458325928044e-15	0.09702370004128698
16.253009765625	4.765304735299156e-16	0.06779953109924779
16.831666015625	1.2269868983798635e-16	0.04618039137973471
16.659138671875	3.079436362031953e-17	0.030659889794007474
15.0719296875	7.533288557462739e-18	0.019841094744370243
14.9231494140625	0.019841094744370298	6.16659351490994e-17
15.49235546875	0.03065988979400756	2.4258002935511285e-16
15.7319228515625	0.04618039137973475	9.301368016640084e-16
15.7927216796875	0.06779953109924783	3.476327411194989e-15
15.8306376953125	0.09702370004128709	1.2664165549094176e-14
15.856716796875	0.13533528323661276	4.4969136320232955e-14
15.896888671875	0.1840035919677199	1.55644785504638e-13
15.9319765625	0.24385048692652475	5.25093527797419e-13
15.9633583984375	0.31499453169676345	1.7267156154687624e-12
16.021076171875	0.3966107332899651	5.534610071700974e-12
16.0653232421875	0.48675225595997185	1.7291604867152204e-11
16.1179375	0.5822822402018134	5.2658154923891826e-11
16.1879697265625	0.678955290288568	1.5630685836019022e-10
16.26811328125	0.7716686738745263	4.522436647695059e-10
16.351119140625	0.8548750167246698	1.2754076295260396e-09
16.46146875	0.923116346386636	3.505965117042003e-09
16.542677734375	0.9716107671891228	9.393949736049535e-09
16.603533203125	0.996805114543033	2.4534145397154624e-08
16.63959375	0.996805114543033	6.245622035317723e-08
16.629775390625	0.9716107671891226	1.5497531357028912e-07
16.550494140625	0.9231163463866356	3.7482746881752216e-07
16.441134765625	0.8548750167246695	8.836542241315566e-07
16.307533203125	0.7716686738745262	2.0305578494036726e-06
16.181802734375	0.6789552902885677	4.548104523682639e-06
16.102265625	0.5822822402018133	9.929504305851047e-06
16.033115234375	0.48675225595997157	2.113035343044194e-05
16.0154609375	0.3966107332899649	4.382965126946305e-05
16.0081201171875	0.31499453169676317	8.861583426604922e-05
15.9982109375	0.24385048692652442	0.0001746371788397792
16.0107822265625	0.1840035919677199	0.0003354626279025107
16.0170947265625	0.1353352832366127	0.0006281070149764959
16.0289501953125	0.09702370004128698	0.0011463182433300535
16.0439609375	0.06779953109924779	0.002039195319842277
16.0513017578125	0.04618039137973471	0.003535855501507573
16.06725	0.030659889794007474	0.0059760228950059375
16.0828681640625	0.019841094744370298	0.009844916976392417
16.08714453125	0.01251534234122367	0.015808618705241806
16.0991083984375	0.007694880818387471	0.02474331320515426
16.10415625	0.004611509662433039	0.03774886009129893
16.12116796875	0.0026938065804214878	0.056134762834133684
16.1278486328125	0.0015338106793244607	0.08136581966452526
16.1268583984375	0.0008512540013104993	0.11495667048603483
16.13825390625	0.00046049894189605014	0.15831002262193852
16.1292255859375	0.00024281760334162714	0.21250282427502182
16.1229296875	0.0001247997631334372	0.27803730045319386
16.12852734375	6.252150377482015e-05	0.35458754856089875
16.12553515625	3.0530022934678436e-05	0.44078414080532435
16.1339599609375	1.4531381583631387e-05	0.5340851477595165
16.1372998046875	6.741689478400708e-06	0.6307788205474278
16.1384384765625	3.048685633689856e-06	0.7261490370736906
16.1523115234375	1.343812277631519e-06	0.8148102621687291
16.167763671875	5.773599123465918e-07	0.8911878885041843
16.2219033203125	2.4178909476747177e-07	0.9500886338026269
16.2367294921875	9.86981139110593e-08	0.9872815715902905
16.28457421875	3.927019510784397e-08	1.0
16.3625517578125	1.522997974471252e-08	0.9872815715902905
16.3434111328125	5.757284007027132e-09	0.9500886338026269
16.3629013671875	2.1213779139165976e-09	0.8911878885041852
16.352953125	7.619044208991666e-10	0.8148102621687301
16.2678564453125	2.667257870669008e-10	0.7261490370736916
16.1895849609375	9.101470764487969e-11	0.6307788205474288
16.15655078125	3.0271937126909755e-11	0.5340851477595175
16.1583310546875	9.81410970406499e-12	0.4407841408053249
16.1557978515625	3.1012991859194074e-12	0.3545875485608993
16.16486328125	9.552531605297814e-13	0.2780373004531943
16.180556640625	2.8679750088880877e-13	0.21250282427502212
16.19393359375	8.392943572505899e-14	0.15831002262193877
16.1904091796875	2.394061514095652e-14	0.11495667048603504
16.248623046875	6.6563840049803625e-15	0.08136581966452526
16.2838955078125	1.8039458325928044e-15	0.0561347628341339
16.8448984375	4.765304735299156e-16	0.037748860091299116
17.49519921875	1.2269868983798635e-16	0.024743313205154382
17.326435546875	3.079436362031953e-17	0.015808618705241893
15.7630107421875	7.533288557462739e-18	0.009844916976392469
15.520671875	0.019841094744370298	6.16659351490994e-17
16.09477734375	0.03065988979400756	2.4258002935511285e-16
16.354275390625	0.04618039137973475	9.301368016640084e-16
16.431482421875	0.06779953109924783	3.476327411194989e-15
16.4417421875	0.09702370004128709	1.2664165549094176e-14
16.484447265625	0.13533528323661276	4.4969136320232955e-14
16.5052578125	0.1840035919677199	1.55644785504638e-13
16.540603515625	0.24385048692652475	5.25093527797419e-13
16.5700390625	0.31499453169676345	1.7267156154687624e-12
16.6166171875	0.3966107332899651	5.534610071700974e-12
16.654294921875	0.48675225595997185	1.7291604867152204e-11
16.706744140625	0.5822822402018134	5.2658154923891826e-11
16.769599609375	0.678955290288568	1.5630685836019022e-10
16.84398046875	0.7716686738745263	4.522436647695059e-10
16.92531640625	0.8548750167246698	1.2754076295260396e-09
17.03919140625	0.923116346386636	3.505965117042003e-09
17.114470703125	0.9716107671891228	9.393949736049535e-09
17.15809375	0.996805114543033	2.4534145397154624e-08
17.19734765625	0.996805114543033	6.245622035317723e-08
17.187583984375	0.9716107671891226	1.5497531357028912e-07
17.1286015625	0.9231163463866356	3.7482746881752216e-07
17.01401171875	0.8548750167246695	8.836542241315566e-07
16.88609765625	0.7716686738745262	2.0305578494036726e-06
16.76438671875	0.6789552902885677	4.548104523682639e-06
16.67994921875	0.5822822402018133	9.929504305851047e-06
16.623388671875	0.48675225595997157	2.113035343044194e-05
16.584814453125	0.3966107332899649	4.382965126946305e-05
16.581345703125	0.31499453169676317	8.861583426604922e-05
16.5758203125	0.24385048692652442	0.0001746371788397792
16.584482421875	0.1840035919677199	0.0003354626279025107
16.599275390625	0.1353352832366127	0.0006281070149764959
16.60527734375	0.09702370004128698	0.0011463182433300535
16.607587890625	0.06779953109924779	0.002039195319842277
16.6051640625	0.04618039137973471	0.003535855501507573
16.621041015625	0.030659889794007474	0.0059760228950059375
16.637740234375	0.019841094744370298	0.009844916976392417
16.652494140625	0.01251534234122367	0.015808618705241806
16.654880859375	0.007694880818387471	0.02474331320515426
16.67095703125	0.004611509662433039	0.03774886009129893
16.670076171875	0.0026938065804214878	0.056134762834133684
16.669232421875	0.0015338106793244607	0.08136581966452526
16.684611328125	0.0008512540013104993	0.11495667048603483
16.665083984375	0.00046049894189605014	0.15831002262193852
16.666919921875	0.00024281760334162714	0.21250282427502182
16.66627734375	0.0001247997631334372	0.27803730045319386
16.67448046875	6.252150377482015e-05	0.35458754856089875
16.664130859375	3.0530022934678436e-05	0.44078414080532435
16.65655078125	1.4531381583631387e-05	0.5340851477595165
16.660845703125	6.741689478400708e-06	0.6307788205474278
16.658587890625	3.048685633689856e-06	0.7261490370736906
16.66209375	1.343812277631519e-06	0.8148102621687291
16.666994140625	5.773599123465918e-07	0.8911878885041843
16.7106171875	2.4178909476747177e-07	0.9500886338026269
16.761046875	9.86981139110593e-08	0.9872815715902905
16.7710859375	3.927019510784397e-08	1.0
16.828087890625	1.522997974471252e-08	0.9872815715902905
16.868150390625	5.757284007027132e-09	0.9500886338026269
16.85170703125	2.1213779139165976e-09	0.8911878885041852
16.871564453125	7.619044208991666e-10	0.8148102621687301
16.8235546875	2.667257870669008e-10	0.7261490370736916
16.720306640625	9.101470764487969e-11	0.6307788205474288
16.664021484375	3.0271937126909755e-11	0.5340851477595175
16.655083984375	9.81410970406499e-12	0.4407841408053249
16.65946875	3.1012991859194074e-12	0.3545875485608993
16.654623046875	9.552531605297814e-13	0.2780373004531943
16.652716796875	2.8679750088880877e-13	0.21250282427502212
16.670205078125	8.392943572505899e-14	0.15831002262193877
16.673271484375	2.394061514095652e-14	0.11495667048603504
16.681107421875	6.6563840049803625e-15	0.08136581966452526
16.743923828125	1.8039458325928044e-15	0.0561347628341339
16.929611328125	4.765304735299156e-16	0.037748860091299116
17.704689453125	1.2269868983798635e-16	0.024743313205154382
18.1016796875	3.079436362031953e-17	0.015808618705241893
17.395072265625	7.533288557462739e-18	0.009844916976392469
15.859486328125	0.019841094744370298	6.16659351490994e-17
16.19487109375	0.03065988979400756	2.4258002935511285e-16
16.693568359375	0.04618039137973475	9.301368016640084e-16
16.874462890625	0.06779953109924783	3.476327411194989e-15
16.89114453125	0.09702370004128709	1.2664165549094176e-14
16.91784765625	0.13533528323661276	4.4969136320232955e-14
16.936419921875	0.1840035919677199	1.55644785504638e-13
16.962294921875	0.24385048692652475	5.25093527797419e-13
16.9966875	0.31499453169676345	1.7267156154687624e-12
17.02863671875	0.3966107332899651	5.534610071700974e-12
17.06884765625	0.48675225595997185	1.7291604867152204e-11
17.11186328125	0.5822822402018134	5.2658154923891826e-11
17.17242578125	0.678955290288568	1.5630685836019022e-10
17.233978515625	0.7716686738745263	4.522436647695059e-10
17.305880859375	0.8548750167246698	1.2754076295260396e-09
17.4057890625	0.923116346386636	3.505965117042003e-09
17.4818046875	0.9716107671891228	9.393949736049535e-09
17.550201171875	0.996805114543033	2.4534145397154624e-08
17.590869140625	0.996805114543033	6.245622035317723e-08
17.602833984375	0.9716107671891226	1.5497531357028912e-07
17.57716015625	0.9231163463866356	3.7482746881752216e-07
17.493861328125	0.8548750167246695	8.836542241315566e-07
17.3773984375	0.7716686738745262	2.0305578494036726e-06
17.253798828125	0.6789552902885677	4.548104523682639e-06
17.14823828125	0.5822822402018133	9.929504305851047e-06
17.077509765625	0.48675225595997157	2.113035343044194e-05
17.029775390625	0.3966107332899649	4.382965126946305e-05
16.992171875	0.31499453169676317	8.861583426604922e-05
16.98077734375	0.24385048692652442	0.0001746371788397792
16.976427734375	0.1840035919677199	0.0003354626279025107
16.981859375	0.1353352832366127	0.0006281070149764959
16.98635546875	0.09702370004128698	0.0011463182433300535
16.989255859375	0.06779953109924779	0.002039195319842277
16.99277734375	0.04618039137973471	0.003535855501507573
16.997990234375	0.030659889794007474	0.0059760228950059375
17.020544921875	0.019841094744370298	0.009844916976392417
17.0228203125	0.01251534234122367	0.015808618705241806
17.026673828125	0.007694880818387471	0.02474331320515426
17.04172265625	0.004611509662433039	0.03774886009129893
17.04045703125	0.0026938065804214878	0.056134762834133684
17.03777734375	0.0015338106793244607	0.08136581966452526
17.049724609375	0.0008512540013104993	0.11495667048603483
17.047685546875	0.00046049894189605014	0.15831002262193852
17.048439453125	0.00024281760334162714	0.21250282427502182
17.041630859375	0.0001247997631334372	0.27803730045319386
17.0384375	6.252150377482015e-05	0.35458754856089875
17.03790625	3.0530022934678436e-05	0.44078414080532435
17.0379609375	1.4531381583631387e-05	0.5340851477595165
17.042732421875	6.741689478400708e-06	0.6307788205474278
17.018837890625	3.048685633689856e-06	0.7261490370736906
17.028087890625	1.343812277631519e-06	0.8148102621687291
17.0311328125	5.773599123465918e-07	0.8911878885041843
17.0681875	2.4178909476747177e-07	0.9500886338026269
17.1076796875	9.86981139110593e-08	0.9872815715902905
17.125609375	3.927019510784397e-08	1.0
17.169068359375	1.522997974471252e-08	0.9872815715902905
17.231298828125	5.757284007027132e-09	0.9500886338026269
17.214158203125	2.1213779139165976e-09	0.8911878885041852
17.24381640625	7.619044208991666e-10	0.8148102621687301
17.215259765625	2.667257870669008e-10	0.7261490370736916
17.09881640625	9.101470764487969e-11	0.6307788205474288
17.040216796875	3.0271937126909755e-11	0.5340851477595175
17.0135703125	9.81410970406499e-12	0.4407841408053249
17.006615234375	3.1012991859194074e-12	0.3545875485608993
17.0068359375	9.552531605297814e-13	0.2780373004531943
17.003533203125	2.8679750088880877e-13	0.21250282427502212
17.01327734375	8.392943572505899e-14	0.15831002262193877
17.02647265625	2.394061514095652e-14	0.11495667048603504
17.019314453125	6.6563840049803625e-15	0.08136581966452526
17.078333984375	1.8039458325928044e-15	0.0561347628341339
17.186154296875	4.765304735299156e-16	0.037748860091299116
17.87567578125	1.2269868983798635e-16	0.024743313205154382
18.63351953125	3.079436362031953e-17	0.015808618705241893
18.245759765625	7.533288557462739e-18	0.009844916976392469
16.576921875	0.019841094744370298	6.16659351490994e-17
16.3367666015625	0.03065988979400756	2.4258002935511285e-16
16.887970703125	0.04618039137973475	9.301368016640084e-16
17.171765625	0.06779953109924783	3.476327411194989e-15
17.22252734375	0.09702370004128709	1.2664165549094176e-14
17.23941015625	0.13533528323661276	4.4969136320232955e-14
17.264919921875	0.1840035919677199	1.55644785504638e-13
17.2978984375	0.24385048692652475	5.25093527797419e-13
17.32941015625	0.31499453169676345	1.7267156154687624e-12
17.36038671875	0.3966107332899651	5.534610071700974e-12
17.38787890625	0.48675225595997185	1.7291604867152204e-11
17.4287109375	0.5822822402018134	5.2658154923891826e-11
17.49459375	0.678955290288568	1.5630685836019022e-10
17.547595703125	0.7716686738745263	4.522436647695059e-10
17.618380859375	0.8548750167246698	1.2754076295260396e-09
17.7059921875	0.923116346386636	3.505965117042003e-09
17.80039453125	0.9716107671891228	9.393949736049535e-09
17.868150390625	0.996805114543033	2.4534145397154624e-08
17.9154609375	0.996805114543033	6.245622035317723e-08
17.946017578125	0.9716107671891226	1.5497531357028912e-07
17.90180859375	0.9231163463866356	3.7482746881752216e-07
17.833337890625	0.8548750167246695	8.836542241315566e-07
17.715205078125	0.7716686738745262	2.0305578494036726e-06
17.5756015625	0.6789552902885677	4.548104523682639e-06
17.445943359375	0.5822822402018133	9.929504305851047e-06
17.353083984375	0.48675225595997157	2.113035343044194e-05
17.28051953125	0.3966107332899649	4.382965126946305e-05
17.237318359375	0.31499453169676317	8.861583426604922e-05
17.23504296875	0.24385048692652442	0.0001746371788397792
17.230271484375	0.1840035919677199	0.0003354626279025107
17.236529296875	0.1353352832366127	0.0006281070149764959
17.226748046875	0.09702370004128698	0.0011463182433300535
17.22452734375	0.06779953109924779	0.002039195319842277
17.228033203125	0.04618039137973471	0.003535855501507573
17.234546875	0.030659889794007474	0.0059760228950059375
17.23798046875	0.019841094744370298	0.009844916976392417
17.251595703125	0.01251534234122367	0.015808618705241806
17.2579296875	0.007694880818387471	0.02474331320515426
17.260111328125	0.004611509662433039	0.03774886009129893
17.26080859375	0.0026938065804214878	0.056134762834133684
17.259654296875	0.0015338106793244607	0.08136581966452526
17.274353515625	0.0008512540013104993	0.11495667048603483
17.26769140625	0.00046049894189605014	0.15831002262193852
17.25244140625	0.00024281760334162714	0.21250282427502182
17.246603515625	0.0001247997631334372	0.27803730045319386
17.23662109375	6.252150377482015e-05	0.35458754856089875
17.2340703125	3.0530022934678436e-05	0.44078414080532435
17.226162109375	1.4531381583631387e-05	0.5340851477595165
17.232236328125	6.741689478400708e-06	0.6307788205474278
17.2303828125	3.048685633689856e-06	0.7261490370736906
17.223666015625	1.343812277631519e-06	0.8148102621687291
17.2275	5.773599123465918e-07	0.8911878885041843
17.226544921875	2.4178909476747177e-07	0.9500886338026269
17.25176171875	9.86981139110593e-08	0.9872815715902905
17.291623046875	3.927019510784397e-08	1.0
17.31575390625	1.522997974471252e-08	0.9872815715902905
17.3748671875	5.757284007027132e-09	0.9500886338026269
17.41612109375	2.1213779139165976e-09	0.8911878885041852
17.410875	7.619044208991666e-10	0.8148102621687301
17.405166015625	2.667257870669008e-10	0.7261490370736916
17.393712890625	9.101470764487969e-11	0.6307788205474288
17.300173828125	3.0271937126909755e-11	0.5340851477595175
17.21509375	9.81410970406499e-12	0.4407841408053249
17.192943359375	3.1012991859194074e-12	0.3545875485608993
17.18690625	9.552531605297814e-13	0.2780373004531943
17.209771484375	2.8679750088880877e-13	0.21250282427502212
17.212376953125	8.392943572505899e-14	0.15831002262193877
17.21109375	2.394061514095652e-14	0.11495667048603504
17.219408203125	6.6563840049803625e-15	0.08136581966452526
17.2314453125	1.8039458325928044e-15	0.0561347628341339
17.2965390625	4.765304735299156e-16	0.037748860091299116
17.348017578125	1.2269868983798635e-16	0.024743313205154382
18.0120859375	3.079436362031953e-17	0.015808618705241893
18.586337890625	7.533288557462739e-18	0.009844916976392469
18.38898046875	1.796304814270403e-18	0.005976022895005958
16.728876953125	0.019841094744370298	3.079436362031953e-17
16.69277734375	0.03065988979400756	1.2269868983798635e-16
17.224306640625	0.04618039137973475	4.765304735299156e-16
17.422931640625	0.06779953109924783	1.8039458325928044e-15
17.49329296875	0.09702370004128709	6.65638400498055e-15
17.517609375	0.13533528323661276	2.3940615140956863e-14
17.53058203125	0.1840035919677199	8.392943572506018e-14
17.567580078125	0.24385048692652475	2.867975008888118e-13
17.598064453125	0.31499453169676345	9.55253160529795e-13
17.623865234375	0.3966107332899651	3.101299185919429e-12
17.68575	0.48675225595997185	9.814109704065061e-12
17.732015625	0.5822822402018134	3.0271937126909975e-11
17.805111328125	0.678955290288568	9.101470764488001e-11
17.845779296875	0.7716686738745263	2.667257870669027e-10
17.949064453125	0.8548750167246698	7.61904420899172e-10
18.0421640625	0.923116346386636	2.1213779139166125e-09
18.1460546875	0.9716107671891228	5.7572840070272345e-09
18.24866015625	0.996805114543033	1.522997974471279e-08
18.293109375	0.996805114543033	3.927019510784439e-08
18.330583984375	0.9716107671891226	9.869811391106034e-08
18.191603515625	0.9231163463866356	2.4178909476747436e-07
18.116048828125	0.8548750167246695	5.773599123465949e-07
18.044365234375	0.7716686738745262	1.343812277631526e-06
17.9083046875	0.6789552902885677	3.0486856336898723e-06
17.754697265625	0.5822822402018133	6.741689478400731e-06
17.651779296875	0.48675225595997157	1.4531381583631438e-05
17.4323828125	0.3966107332899649	3.053002293467871e-05
17.444787109375	0.31499453169676317	6.25215037748206e-05
17.448458984375	0.24385048692652442	0.00012479976313343807
17.443888671875	0.1840035919677199	0.00024281760334162798
17.457890625	0.1353352832366127	0.00046049894189605176
17.416966796875	0.09702370004128698	0.0008512540013105025
17.430693359375	0.06779953109924779	0.0015338106793244715
17.451927734375	0.04618039137973471	0.002693806580421505
17.413515625	0.030659889794007474	0.004611509662433067
17.38976953125	0.019841094744370298	0.007694880818387493
17.4126171875	0.01251534234122367	0.012515342341223704
17.407275390625	0.007694880818387471	0.01984109474437035
17.42184765625	0.004611509662433039	0.030659889794007626
17.4058828125	0.0026938065804214878	0.04618039137973492
17.43840234375	0.0015338106793244607	0.06779953109924805
17.39281640625	0.0008512540013104993	0.09702370004128717
17.359376953125	0.00046049894189605014	0.13533528323661292
17.39865234375	0.00024281760334162714	0.18400359196772018
17.376244140625	0.0001247997631334372	0.24385048692652514
17.419701171875	6.252150377482015e-05	0.314994531696764
17.426509765625	3.0530022934678436e-05	0.39661073328996577
17.404359375	1.4531381583631387e-05	0.48675225595997207
17.400064453125	6.741689478400708e-06	0.5822822402018138
17.382685546875	3.048685633689856e-06	0.6789552902885686
17.419369140625	1.343812277631519e-06	0.7716686738745268
17.462587890625	5.773599123465918e-07	0.85487501672467
17.49780859375	2.4178909476747177e-07	0.9231163463866363
17.487638671875	9.86981139110593e-08	0.9716107671891232
17.463689453125	3.927019510784397e-08	0.9968051145430331
17.502982421875	1.522997974471252e-08	0.9968051145430329
17.561763671875	5.757284007027132e-09	0.9716107671891222
17.547283203125	2.1213779139165976e-09	0.9231163463866356
17.585876953125	7.619044208991666e-10	0.8548750167246694
17.600486328125	2.667257870669008e-10	0.7716686738745258
17.545009765625	9.101470764487969e-11	0.6789552902885675
17.437080078125	3.0271937126909755e-11	0.5822822402018127
17.38508984375	9.81410970406499e-12	0.486752255959971
17.414525390625	3.1012991859194074e-12	0.3966107332899643
17.382390625	9.552531605297814e-13	0.3149945316967627
17.39077734375	2.8679750088880877e-13	0.24385048692652406
17.3758203125	8.392943572505899e-14	0.1840035919677193
17.357046875	2.394061514095652e-14	0.1353352832366122
17.43520703125	6.6563840049803625e-15	0.0970237000412866
17.426748046875	1.8039458325928044e-15	0.06779953109924779
17.459083984375	4.765304735299156e-16	0.04618039137973471
17.682923828125	1.2269868983798635e-16	0.030659889794007474
18.530970703125	3.079436362031953e-17	0.019841094744370243
18.870755859375	7.533288557462739e-18	0.012515342341223635
18.131427734375	1.796304814270403e-18	0.007694880818387451
16.753615234375	0.019841094744370298	3.079436362031953e-17
17.14082421875	0.03065988979400756	1.2269868983798635e-16
17.635611328125	0.04618039137973475	4.765304735299156e-16
17.86369140625	0.06779953109924783	1.8039458325928044e-15
17.764498046875	0.09702370004128709	6.65638400498055e-15
17.79090625	0.13533528323661276	2.3940615140956863e-14
17.871544921875	0.1840035919677199	8.392943572506018e-14
17.911314453125	0.24385048692652475	2.867975008888118e-13
18.00749609375	0.31499453169676345	9.55253160529795e-13
18.1276484375	0.3966107332899651	3.101299185919429e-12
18.154734375	0.48675225595997185	9.814109704065061e-12
18.241357421875	0.5822822402018134	3.0271937126909975e-11
18.284466796875	0.678955290288568	9.101470764488001e-11
18.345044921875	0.7716686738745263	2.667257870669027e-10
18.4613046875	0.8548750167246698	7.61904420899172e-10
18.59349609375	0.923116346386636	2.1213779139166125e-09
18.689916015625	0.9716107671891228	5.7572840070272345e-09
18.787841796875	0.996805114543033	1.522997974471279e-08
18.8806484375	0.996805114543033	3.927019510784439e-08
18.879271484375	0.9716107671891226	9.869811391106034e-08
18.889255859375	0.9231163463866356	2.4178909476747436e-07
18.850091796875	0.8548750167246695	5.773599123465949e-07
18.746017578125	0.7716686738745262	1.343812277631526e-06
18.536603515625	0.6789552902885677	3.0486856336898723e-06
18.493349609375	0.5822822402018133	6.741689478400731e-06
18.373693359375	0.48675225595997157	1.4531381583631438e-05
18.4030546875	0.3966107332899649	3.053002293467871e-05
18.336841796875	0.31499453169676317	6.25215037748206e-05
18.25816796875	0.24385048692652442	0.00012479976313343807
18.3344375	0.1840035919677199	0.00024281760334162798
18.307001953125	0.1353352832366127	0.00046049894189605176
18.293935546875	0.09702370004128698	0.0008512540013105025
18.305166015625	0.06779953109924779	0.0015338106793244715
18.3112421875	0.04618039137973471	0.002693806580421505
18.337427734375	0.030659889794007474	0.004611509662433067
18.33073046875	0.019841094744370298	0.007694880818387493
18.35407421875	0.01251534234122367	0.012515342341223704
18.306798828125	0.007694880818387471	0.01984109474437035
18.290759765625	0.004611509662433039	0.030659889794007626
18.324271484375	0.0026938065804214878	0.04618039137973492
18.33287890625	0.0015338106793244607	0.06779953109924805
18.33803515625	0.0008512540013104993	0.09702370004128717
18.37741796875	0.00046049894189605014	0.13533528323661292
18.391697265625	0.00024281760334162714	0.18400359196772018
18.398228515625	0.0001247997631334372	0.24385048692652514
18.44423828125	6.252150377482015e-05	0.314994531696764
18.44550390625	3.0530022934678436e-05	0.39661073328996577
18.41054296875	1.4531381583631387e-05	0.48675225595997207
18.439685546875	6.741689478400708e-06	0.5822822402018138
18.45864453125	3.048685633689856e-06	0.6789552902885686
18.468462890625	1.343812277631519e-06	0.7716686738745268
18.490595703125	5.773599123465918e-07	0.85487501672467
18.59050390625	2.4178909476747177e-07	0.9231163463866363
18.59523828125	9.86981139110593e-08	0.9716107671891232
18.686427734375	3.927019510784397e-08	0.9968051145430331
18.75416796875	1.522997974471252e-08	0.9968051145430329
18.764572265625	5.757284007027132e-09	0.9716107671891222
18.785712890625	2.1213779139165976e-09	0.9231163463866356
18.80065234375	7.619044208991666e-10	0.8548750167246694
18.758626953125	2.667257870669008e-10	0.7716686738745258
18.610525390625	9.101470764487969e-11	0.6789552902885675
18.523703125	3.0271937126909755e-11	0.5822822402018127
18.504689453125	9.81410970406499e-12	0.486752255959971
18.52557421875	3.1012991859194074e-12	0.3966107332899643
18.361396484375	9.552531605297814e-13	0.3149945316967627
18.406212890625	2.8679750088880877e-13	0.24385048692652406
18.451265625	8.392943572505899e-14	0.1840035919677193
18.358478515625	2.394061514095652e-14	0.1353352832366122
18.50180859375	6.6563840049803625e-15	0.0970237000412866
18.49718359375	1.8039458325928044e-15	0.06779953109924779
18.675142578125	4.765304735299156e-16	0.04618039137973471
19.4360546875	1.2269868983798635e-16	0.030659889794007474
19.923482421875	3.079436362031953e-17	0.019841094744370243
19.2874765625	7.533288557462739e-18	0.012515342341223635
17.805880859375	0.019841094744370298	6.16659351490994e-17
18.10428515625	0.03065988979400756	2.4258002935511285e-16
18.648697265625	0.04618039137973475	9.301368016640084e-16
18.817572265625	0.06779953109924783	3.476327411194989e-15
18.8487890625	0.09702370004128709	1.2664165549094176e-14
18.89153125	0.13533528323661276	4.4969136320232955e-14
18.926197265625	0.1840035919677199	1.55644785504638e-13
18.94765234375	0.24385048692652475	5.25093527797419e-13
18.99140234375	0.31499453169676345	1.7267156154687624e-12
18.97294140625	0.3966107332899651	5.534610071700974e-12
18.977251953125	0.48675225595997185	1.7291604867152204e-11
19.0603515625	0.5822822402018134	5.2658154923891826e-11
19.065912109375	0.678955290288568	1.5630685836019022e-10
19.10028515625	0.7716686738745263	4.522436647695059e-10
19.175951171875	0.8548750167246698	1.2754076295260396e-09
19.22788671875	0.923116346386636	3.505965117042003e-09
19.2555625	0.9716107671891228	9.393949736049535e-09
19.215259765625	0.996805114543033	2.4534145397154624e-08
19.216453125	0.996805114543033	6.245622035317723e-08
19.197587890625	0.9716107671891226	1.5497531357028912e-07
19.203001953125	0.9231163463866356	3.7482746881752216e-07
19.1313359375	0.8548750167246695	8.836542241315566e-07
18.9476328125	0.7716686738745262	2.0305578494036726e-06
18.844365234375	0.6789552902885677	4.548104523682639e-06
18.67389453125	0.5822822402018133	9.929504305851047e-06
18.59681640625	0.48675225595997157	2.113035343044194e-05
18.557009765625	0.3966107332899649	4.382965126946305e-05
18.551689453125	0.31499453169676317	8.861583426604922e-05
18.524859375	0.24385048692652442	0.0001746371788397792
18.549744140625	0.1840035919677199	0.0003354626279025107
18.557634765625	0.1353352832366127	0.0006281070149764959
18.581125	0.09702370004128698	0.0011463182433300535
18.6079921875	0.06779953109924779	0.002039195319842277
18.63772265625	0.04618039137973471	0.003535855501507573
18.649798828125	0.030659889794007474	0.0059760228950059375
18.6961015625	0.019841094744370298	0.009844916976392417
18.703771484375	0.01251534234122367	0.015808618705241806
18.72509765625	0.007694880818387471	0.02474331320515426
18.7424765625	0.004611509662433039	0.03774886009129893
18.74276953125	0.0026938065804214878	0.056134762834133684
18.7545703125	0.0015338106793244607	0.08136581966452526
18.748900390625	0.0008512540013104993	0.11495667048603483
18.7595078125	0.00046049894189605014	0.15831002262193852
18.7376875	0.00024281760334162714	0.21250282427502182
18.736236328125	0.0001247997631334372	0.27803730045319386
18.724876953125	6.252150377482015e-05	0.35458754856089875
18.722033203125	3.0530022934678436e-05	0.44078414080532435
18.69850390625	1.4531381583631387e-05	0.5340851477595165
18.699275390625	6.741689478400708e-06	0.6307788205474278
18.694982421875	3.048685633689856e-06	0.7261490370736906
18.7024140625	1.343812277631519e-06	0.8148102621687291
18.68362109375	5.773599123465918e-07	0.8911878885041843
18.727482421875	2.4178909476747177e-07	0.9500886338026269
18.75238671875	9.86981139110593e-08	0.9872815715902905
18.75512109375	3.927019510784397e-08	1.0
18.81832421875	1.522997974471252e-08	0.9872815715902905
18.8105625	5.757284007027132e-09	0.9500886338026269
18.801294921875	2.1213779139165976e-09	0.8911878885041852
18.7950546875	7.619044208991666e-10	0.8148102621687301
18.737724609375	2.667257870669008e-10	0.7261490370736916
18.6531015625	9.101470764487969e-11	0.6307788205474288
18.561671875	3.0271937126909755e-11	0.5340851477595175
18.542365234375	9.81410970406499e-12	0.4407841408053249
18.547669921875	3.1012991859194074e-12	0.3545875485608993
18.545724609375	9.552531605297814e-13	0.2780373004531943
18.53772265625	2.8679750088880877e-13	0.21250282427502212
18.549138671875	8.392943572505899e-14	0.15831002262193877
18.5426796875	2.394061514095652e-14	0.11495667048603504
18.5672890625	6.6563840049803625e-15	0.08136581966452526
18.606763671875	1.8039458325928044e-15	0.0561347628341339
18.929298828125	4.765304735299156e-16	0.037748860091299116
19.79118359375	1.2269868983798635e-16	0.024743313205154382
20.08114453125	3.079436362031953e-17	0.015808618705241893
19.112748046875	7.533288557462739e-18	0.009844916976392469
17.6843359375	0.019841094744370298	6.16659351490994e-17
18.034419921875	0.03065988979400756	2.4258002935511285e-16
18.537796875	0.04618039137973475	9.301368016640084e-16
18.703314453125	0.06779953109924783	3.476327411194989e-15
18.737740234375	0.09702370004128709	1.2664165549094176e-14
18.767068359375	0.13533528323661276	4.4969136320232955e-14
18.791384765625	0.1840035919677199	1.55644785504638e-13
18.791548828125	0.24385048692652475	5.25093527797419e-13
18.8722421875	0.31499453169676345	1.7267156154687624e-12
18.91590234375	0.3966107332899651	5.534610071700974e-12
18.957322265625	0.48675225595997185	1.7291604867152204e-11
19.01505859375	0.5822822402018134	5.2658154923891826e-11
19.071455078125	0.678955290288568	1.5630685836019022e-10
19.165783203125	0.7716686738745263	4.522436647695059e-10
19.240439453125	0.8548750167246698	1.2754076295260396e-09
19.321041015625	0.923116346386636	3.505965117042003e-09
19.40696484375	0.9716107671891228	9.393949736049535e-09
19.520673828125	0.996805114543033	2.4534145397154624e-08
19.585623046875	0.996805114543033	6.245622035317723e-08
19.581693359375	0.9716107671891226	1.5497531357028912e-07
19.548880859375	0.9231163463866356	3.7482746881752216e-07
19.471326171875	0.8548750167246695	8.836542241315566e-07
19.338806640625	0.7716686738745262	2.0305578494036726e-06
19.2037734375	0.6789552902885677	4.548104523682639e-06
19.09986328125	0.5822822402018133	9.929504305851047e-06
19.025353515625	0.48675225595997157	2.113035343044194e-05
18.9583125	0.3966107332899649	4.382965126946305e-05
18.949064453125	0.31499453169676317	8.861583426604922e-05
18.946421875	0.24385048692652442	0.0001746371788397792
18.96011328125	0.1840035919677199	0.0003354626279025107
18.98314453125	0.1353352832366127	0.0006281070149764959
18.98740234375	0.09702370004128698	0.0011463182433300535
18.97628125	0.06779953109924779	0.002039195319842277
18.995935546875	0.04618039137973471	0.003535855501507573
18.99749609375	0.030659889794007474	0.0059760228950059375
19.02557421875	0.019841094744370298	0.009844916976392417
19.032951171875	0.01251534234122367	0.015808618705241806
19.0254453125	0.007694880818387471	0.02474331320515426
19.043779296875	0.004611509662433039	0.03774886009129893
19.0503671875	0.0026938065804214878	0.056134762834133684
19.063140625	0.0015338106793244607	0.08136581966452526
19.0723359375	0.0008512540013104993	0.11495667048603483
19.084154296875	0.00046049894189605014	0.15831002262193852
19.098744140625	0.00024281760334162714	0.21250282427502182
19.09687109375	0.0001247997631334372	0.27803730045319386
19.099533203125	6.252150377482015e-05	0.35458754856089875
19.10880078125	3.0530022934678436e-05	0.44078414080532435
19.09687109375	1.4531381583631387e-05	0.5340851477595165
19.135576171875	6.741689478400708e-06	0.6307788205474278
19.171142578125	3.048685633689856e-06	0.7261490370736906
19.19566015625	1.343812277631519e-06	0.8148102621687291
19.245431640625	5.773599123465918e-07	0.8911878885041843
19.294193359375	2.4178909476747177e-07	0.9500886338026269
19.28892578125	9.86981139110593e-08	0.9872815715902905
19.304083984375	3.927019510784397e-08	1.0
19.290521484375	1.522997974471252e-08	0.9872815715902905
19.217333984375	5.757284007027132e-09	0.9500886338026269
19.141009765625	2.1213779139165976e-09	0.8911878885041852
19.117150390625	7.619044208991666e-10	0.8148102621687301
19.11553515625	2.667257870669008e-10	0.7261490370736916
19.114599609375	9.101470764487969e-11	0.6307788205474288
19.10780859375	3.0271937126909755e-11	0.5340851477595175
19.125189453125	9.81410970406499e-12	0.4407841408053249
19.12867578125	3.1012991859194074e-12	0.3545875485608993
19.136017578125	9.552531605297814e-13	0.2780373004531943
19.209736328125	2.8679750088880877e-13	0.21250282427502212
19.249359375	8.392943572505899e-14	0.15831002262193877
19.804818359375	2.394061514095652e-14	0.11495667048603504
20.6455234375	6.6563840049803625e-15	0.08136581966452526
20.505205078125	1.8039458325928044e-15	0.0561347628341339
18.998119140625	4.765304735299156e-16	0.037748860091299116
18.3322734375	0.019841094744370298	4.765304735299156e-16
18.922142578125	0.03065988979400756	1.8039458325928044e-15
19.288173828125	0.04618039137973475	6.65638400498055e-15
19.3575625	0.06779953109924783	2.3940615140957033e-14
19.385236328125	0.09702370004128709	8.392943572506018e-14
19.42498828125	0.13533528323661276	2.867975008888118e-13
19.45396484375	0.1840035919677199	9.55253160529795e-13
19.4805390625	0.24385048692652475	3.1012991859194514e-12
19.521591796875	0.31499453169676345	9.814109704065133e-12
19.56789453125	0.3966107332899651	3.0271937126909975e-11
19.607939453125	0.48675225595997185	9.101470764488001e-11
19.68235546875	0.5822822402018134	2.667257870669027e-10
19.749376953125	0.678955290288568	7.61904420899172e-10
19.827005859375	0.7716686738745263	2.1213779139166125e-09
19.920216796875	0.8548750167246698	5.7572840070272345e-09
20.027208984375	0.923116346386636	1.522997974471279e-08
20.117353515625	0.9716107671891228	3.9270195107844665e-08
20.1821171875	0.996805114543033	9.869811391106071e-08
20.218783203125	0.996805114543033	2.4178909476747436e-07
20.2175546875	0.9716107671891226	5.773599123465981e-07
20.146935546875	0.9231163463866356	1.3438122776315312e-06
20.023169921875	0.8548750167246695	3.0486856336898723e-06
19.857875	0.7716686738745262	6.741689478400731e-06
19.70048828125	0.6789552902885677	1.4531381583631438e-05
19.57859375	0.5822822402018133	3.053002293467871e-05
19.505607421875	0.48675225595997157	6.25215037748206e-05
19.47859375	0.3966107332899649	0.00012479976313343807
19.45337890625	0.31499453169676317	0.00024281760334162887
19.430015625	0.24385048692652442	0.000460498941896053
19.4445859375	0.1840035919677199	0.0008512540013105025
19.42709765625	0.1353352832366127	0.0015338106793244715
19.42278515625	0.09702370004128698	0.002693806580421505
19.4258125	0.06779953109924779	0.004611509662433067
19.429337890625	0.04618039137973471	0.0076948808183875134
19.437998046875	0.030659889794007474	0.012515342341223737
19.438732421875	0.019841094744370298	0.01984109474437035
19.45207421875	0.01251534234122367	0.030659889794007626
19.44601953125	0.007694880818387471	0.04618039137973492
19.45525	0.004611509662433039	0.06779953109924805
19.439998046875	0.0026938065804214878	0.09702370004128733
19.437265625	0.0015338106793244607	0.13533528323661317
19.45901171875	0.0008512540013104993	0.18400359196772018
19.43475	0.00046049894189605014	0.24385048692652514
19.4150390625	0.00024281760334162714	0.314994531696764
19.4277578125	0.0001247997631334372	0.39661073328996577
19.412361328125	6.252150377482015e-05	0.48675225595997257
19.409130859375	3.0530022934678436e-05	0.5822822402018144
19.414912109375	1.4531381583631387e-05	0.6789552902885686
19.413279296875	6.741689478400708e-06	0.7716686738745268
19.41237890625	3.048685633689856e-06	0.85487501672467
19.43944921875	1.343812277631519e-06	0.9231163463866363
19.46332421875	5.773599123465918e-07	0.9716107671891232
19.502083984375	2.4178909476747177e-07	0.9968051145430331
19.52483984375	9.86981139110593e-08	0.9968051145430329
19.501111328125	3.927019510784397e-08	0.9716107671891222
19.491734375	1.522997974471252e-08	0.923116346386635
19.431595703125	5.757284007027132e-09	0.8548750167246684
19.330310546875	2.1213779139165976e-09	0.7716686738745258
19.26040625	7.619044208991666e-10	0.6789552902885675
19.227224609375	2.667257870669008e-10	0.5822822402018127
19.21410546875	9.101470764487969e-11	0.486752255959971
19.198578125	3.0271937126909755e-11	0.3966107332899643
19.200744140625	9.81410970406499e-12	0.3149945316967627
19.203625	3.1012991859194074e-12	0.24385048692652406
19.1728125	9.552531605297814e-13	0.1840035919677193
19.16248046875	2.8679750088880877e-13	0.1353352832366122
19.22951953125	8.392943572505899e-14	0.0970237000412866
19.376189453125	2.394061514095652e-14	0.06779953109924751
20.1023046875	6.6563840049803625e-15	0.0461803913797345
20.47167578125	1.8039458325928044e-15	0.030659889794007474
19.95227734375	4.765304735299156e-16	0.019841094744370243
18.335375	0.019841094744370298	4.765304735299156e-16
18.56343359375	0.03065988979400756	1.8039458325928044e-15
19.0783359375	0.04618039137973475	6.65638400498055e-15
19.254423828125	0.06779953109924783	2.3940615140957033e-14
19.269986328125	0.09702370004128709	8.392943572506018e-14
19.27167578125	0.13533528323661276	2.867975008888118e-13
19.318234375	0.1840035919677199	9.55253160529795e-13
19.33866015625	0.24385048692652475	3.1012991859194514e-12
19.354626953125	0.31499453169676345	9.814109704065133e-12
19.380740234375	0.3966107332899651	3.0271937126909975e-11
19.392486328125	0.48675225595997185	9.101470764488001e-11
19.436494140625	0.5822822402018134	2.667257870669027e-10
19.4918984375	0.678955290288568	7.61904420899172e-10
19.555654296875	0.7716686738745263	2.1213779139166125e-09
19.621720703125	0.8548750167246698	5.7572840070272345e-09
19.711681640625	0.923116346386636	1.522997974471279e-08
19.80285546875	0.9716107671891228	3.9270195107844665e-08
19.861966796875	0.996805114543033	9.869811391106071e-08
19.93550390625	0.996805114543033	2.4178909476747436e-07
19.9263828125	0.9716107671891226	5.773599123465981e-07
19.887697265625	0.9231163463866356	1.3438122776315312e-06
19.78940234375	0.8548750167246695	3.0486856336898723e-06
19.624197265625	0.7716686738745262	6.741689478400731e-06
19.46758203125	0.6789552902885677	1.4531381583631438e-05
19.331943359375	0.5822822402018133	3.053002293467871e-05
19.23719140625	0.48675225595997157	6.25215037748206e-05
19.1669765625	0.3966107332899649	0.00012479976313343807
19.127244140625	0.31499453169676317	0.00024281760334162887
19.126986328125	0.24385048692652442	0.000460498941896053
19.10127734375	0.1840035919677199	0.0008512540013105025
19.0851640625	0.1353352832366127	0.0015338106793244715
19.0799140625	0.09702370004128698	0.002693806580421505
19.082228515625	0.06779953109924779	0.004611509662433067
19.061341796875	0.04618039137973471	0.0076948808183875134
19.08130859375	0.030659889794007474	0.012515342341223737
19.099955078125	0.019841094744370298	0.01984109474437035
19.08562109375	0.01251534234122367	0.030659889794007626
19.1413203125	0.007694880818387471	0.04618039137973492
19.061048828125	0.004611509662433039	0.06779953109924805
19.064810546875	0.0026938065804214878	0.09702370004128733
19.033298828125	0.0015338106793244607	0.13533528323661317
19.033060546875	0.0008512540013104993	0.18400359196772018
19.05746875	0.00046049894189605014	0.24385048692652514
19.10522265625	0.00024281760334162714	0.314994531696764
19.047798828125	0.0001247997631334372	0.39661073328996577
18.979142578125	6.252150377482015e-05	0.48675225595997257
18.986484375	3.0530022934678436e-05	0.5822822402018144
18.9501484375	1.4531381583631387e-05	0.6789552902885686
18.958369140625	6.741689478400708e-06	0.7716686738745268
18.967490234375	3.048685633689856e-06	0.85487501672467
18.961765625	1.343812277631519e-06	0.9231163463866363
18.982833984375	5.773599123465918e-07	0.9716107671891232
19.020802734375	2.4178909476747177e-07	0.9968051145430331
19.037375	9.86981139110593e-08	0.9968051145430329
19.061673828125	3.927019510784397e-08	0.9716107671891222
19.130125	1.522997974471252e-08	0.923116346386635
19.12966796875	5.757284007027132e-09	0.8548750167246684
19.10758984375	2.1213779139165976e-09	0.7716686738745258
19.113388671875	7.619044208991666e-10	0.6789552902885675
19.053451171875	2.667257870669008e-10	0.5822822402018127
18.95912109375	9.101470764487969e-11	0.486752255959971
18.89160546875	3.0271937126909755e-11	0.3966107332899643
18.886099609375	9.81410970406499e-12	0.3149945316967627
18.893146484375	3.1012991859194074e-12	0.24385048692652406
18.9094609375	9.552531605297814e-13	0.1840035919677193
18.8998984375	2.8679750088880877e-13	0.1353352832366122
18.919572265625	8.392943572505899e-14	0.0970237000412866
18.924013671875	2.394061514095652e-14	0.06779953109924751
18.960314453125	6.6563840049803625e-15	0.0461803913797345
19.0059375	1.8039458325928044e-15	0.030659889794007474
19.316435546875	4.765304735299156e-16	0.019841094744370243
20.114048828125	1.2269868983798635e-16	0.012515342341223635
20.302048828125	3.079436362031953e-17	0.007694880818387451
19.1945234375	7.533288557462739e-18	0.004611509662433027
17.995330078125	0.019841094744370298	6.16659351490994e-17
18.57677734375	0.03065988979400756	2.4258002935511285e-16
19.00784765625	0.04618039137973475	9.301368016640084e-16
19.128767578125	0.06779953109924783	3.476327411194989e-15
19.14113671875	0.09702370004128709	1.2664165549094176e-14
19.151744140625	0.13533528323661276	4.4969136320232955e-14
19.16095703125	0.1840035919677199	1.55644785504638e-13
19.196193359375	0.24385048692652475	5.25093527797419e-13
19.22467578125	0.31499453169676345	1.7267156154687624e-12
19.247283203125	0.3966107332899651	5.534610071700974e-12
19.280869140625	0.48675225595997185	1.7291604867152204e-11
19.32599609375	0.5822822402018134	5.2658154923891826e-11
19.37940234375	0.678955290288568	1.5630685836019022e-10
19.431501953125	0.7716686738745263	4.522436647695059e-10
19.518033203125	0.8548750167246698	1.2754076295260396e-09
19.60894921875	0.923116346386636	3.505965117042003e-09
19.692228515625	0.9716107671891228	9.393949736049535e-09
19.76216796875	0.996805114543033	2.4534145397154624e-08
19.810287109375	0.996805114543033	6.245622035317723e-08
19.801771484375	0.9716107671891226	1.5497531357028912e-07
19.748203125	0.9231163463866356	3.7482746881752216e-07
19.636568359375	0.8548750167246695	8.836542241315566e-07
19.476794921875	0.7716686738745262	2.0305578494036726e-06
19.321298828125	0.6789552902885677	4.548104523682639e-06
19.204322265625	0.5822822402018133	9.929504305851047e-06
19.124748046875	0.48675225595997157	2.113035343044194e-05
19.072462890625	0.3966107332899649	4.382965126946305e-05
19.037521484375	0.31499453169676317	8.861583426604922e-05
19.025666015625	0.24385048692652442	0.0001746371788397792
19.024033203125	0.1840035919677199	0.0003354626279025107
19.014140625	0.1353352832366127	0.0006281070149764959
19.02230859375	0.09702370004128698	0.0011463182433300535
19.01432421875	0.06779953109924779	0.002039195319842277
19.017279296875	0.04618039137973471	0.003535855501507573
19.023923828125	0.030659889794007474	0.0059760228950059375
19.02430859375	0.019841094744370298	0.009844916976392417
19.0240703125	0.01251534234122367	0.015808618705241806
19.02636328125	0.007694880818387471	0.02474331320515426
19.040990234375	0.004611509662433039	0.03774886009129893
19.0364375	0.0026938065804214878	0.056134762834133684
19.028107421875	0.0015338106793244607	0.08136581966452526
19.013517578125	0.0008512540013104993	0.11495667048603483
19.001478515625	0.00046049894189605014	0.15831002262193852
18.997900390625	0.00024281760334162714	0.21250282427502182
18.982318359375	0.0001247997631334372	0.27803730045319386
18.97257421875	6.252150377482015e-05	0.35458754856089875
18.949615234375	3.0530022934678436e-05	0.44078414080532435
18.9458359375	1.4531381583631387e-05	0.5340851477595165
18.936841796875	6.741689478400708e-06	0.6307788205474278
18.923720703125	3.048685633689856e-06	0.7261490370736906
18.911240234375	1.343812277631519e-06	0.8148102621687291
18.91142578125	5.773599123465918e-07	0.8911878885041843
18.901458984375	2.4178909476747177e-07	0.9500886338026269
18.884650390625	9.86981139110593e-08	0.9872815715902905
18.8804296875	3.927019510784397e-08	1.0
18.93377734375	1.522997974471252e-08	0.9872815715902905
18.934623046875	5.757284007027132e-09	0.9500886338026269
18.96048046875	2.1213779139165976e-09	0.8911878885041852
19.011939453125	7.619044208991666e-10	0.8148102621687301
19.01237890625	2.667257870669008e-10	0.7261490370736916
18.983216796875	9.101470764487969e-11	0.6307788205474288
18.97494140625	3.0271937126909755e-11	0.5340851477595175
18.92467578125	9.81410970406499e-12	0.4407841408053249
18.809423828125	3.1012991859194074e-12	0.3545875485608993
18.743779296875	9.552531605297814e-13	0.2780373004531943
18.709955078125	2.8679750088880877e-13	0.21250282427502212
18.686466796875	8.392943572505899e-14	0.15831002262193877
18.677455078125	2.394061514095652e-14	0.11495667048603504
18.657359375	6.6563840049803625e-15	0.08136581966452526
18.656533203125	1.8039458325928044e-15	0.0561347628341339
18.63030859375	4.765304735299156e-16	0.037748860091299116
18.620234375	1.2269868983798635e-16	0.024743313205154382
18.681216796875	3.079436362031953e-17	0.015808618705241893
18.744126953125	7.533288557462739e-18	0.009844916976392469
19.45029296875	1.796304814270403e-18	0.005976022895005958
19.88303515625	4.175010055850544e-19	0.0035358555015075816
19.49233984375	9.458386988221946e-20	0.0020391953198422826
17.878814453125	0.019841094744370298	7.533288557462739e-18
17.9771796875	0.03065988979400756	3.079436362031953e-17
18.4662421875	0.04618039137973475	1.2269868983798635e-16
18.6373359375	0.06779953109924783	4.765304735299156e-16
18.662681640625	0.09702370004128709	1.8039458325928044e-15
18.677033203125	0.13533528323661276	6.65638400498055e-15
18.681216796875	0.1840035919677199	2.3940615140956863e-14
18.706853515625	0.24385048692652475	8.392943572506018e-14
18.720966796875	0.31499453169676345	2.867975008888118e-13
18.729978515625	0.3966107332899651	9.552531605297883e-13
18.753744140625	0.48675225595997185	3.101299185919429e-12
18.79870703125	0.5822822402018134	9.814109704065061e-12
18.84621875	0.678955290288568	3.0271937126909975e-11
18.889255859375	0.7716686738745263	9.101470764488001e-11
18.9579296875	0.8548750167246698	2.667257870669027e-10
19.04071484375	0.923116346386636	7.61904420899172e-10
19.10474609375	0.9716107671891228	2.1213779139166125e-09
19.188943359375	0.996805114543033	5.7572840070272345e-09
19.243173828125	0.996805114543033	1.5229979744712682e-08
19.24403515625	0.9716107671891226	3.927019510784439e-08
19.207240234375	0.9231163463866356	9.869811391106034e-08
19.137779296875	0.8548750167246695	2.417890947674731e-07
19.005037109375	0.7716686738745262	5.773599123465949e-07
18.854736328125	0.6789552902885677	1.343812277631526e-06
18.7209296875	0.5822822402018133	3.0486856336898723e-06
18.620197265625	0.48675225595997157	6.741689478400731e-06
18.5554140625	0.3966107332899649	1.4531381583631438e-05
18.519388671875	0.31499453169676317	3.053002293467871e-05
18.493751953125	0.24385048692652442	6.25215037748206e-05
18.482740234375	0.1840035919677199	0.00012479976313343764
18.4681875	0.1353352832366127	0.00024281760334162798
18.467931640625	0.09702370004128698	0.00046049894189605176
18.480189453125	0.06779953109924779	0.0008512540013105025
18.466259765625	0.04618039137973471	0.0015338106793244715
18.46952734375	0.030659889794007474	0.002693806580421505
18.46789453125	0.019841094744370298	0.004611509662433051
18.462478515625	0.01251534234122367	0.007694880818387493
18.466865234375	0.007694880818387471	0.012515342341223704
18.46191015625	0.004611509662433039	0.01984109474437035
18.463416015625	0.0026938065804214878	0.030659889794007626
18.45128515625	0.0015338106793244607	0.04618039137973492
18.4516328125	0.0008512540013104993	0.06779953109924793
18.450203125	0.00046049894189605014	0.09702370004128717
18.444990234375	0.00024281760334162714	0.13533528323661292
18.4415234375	0.0001247997631334372	0.18400359196772018
18.412671875	6.252150377482015e-05	0.24385048692652514
18.399037109375	3.0530022934678436e-05	0.314994531696764
18.391384765625	1.4531381583631387e-05	0.3966107332899654
18.392833984375	6.741689478400708e-06	0.48675225595997207
18.3762265625	3.048685633689856e-06	0.5822822402018138
18.357837890625	1.343812277631519e-06	0.6789552902885686
18.37165625	5.773599123465918e-07	0.7716686738745268
18.38175	2.4178909476747177e-07	0.85487501672467
18.42021484375	9.86981139110593e-08	0.9231163463866363
18.43819921875	3.927019510784397e-08	0.9716107671891232
18.459341796875	1.522997974471252e-08	0.9968051145430331
18.517517578125	5.757284007027132e-09	0.9968051145430329
18.513185546875	2.1213779139165976e-09	0.9716107671891226
18.521095703125	7.619044208991666e-10	0.9231163463866356
18.51900390625	2.667257870669008e-10	0.8548750167246694
18.457046875	9.101470764487969e-11	0.7716686738745258
18.377638671875	3.0271937126909755e-11	0.6789552902885675
18.306818359375	9.81410970406499e-12	0.5822822402018127
18.3085234375	3.1012991859194074e-12	0.486752255959971
18.28782421875	9.552531605297814e-13	0.3966107332899643
18.2895859375	2.8679750088880877e-13	0.3149945316967627
18.296908203125	8.392943572505899e-14	0.24385048692652406
18.29553125	2.394061514095652e-14	0.1840035919677193
18.304212890625	6.6563840049803625e-15	0.1353352832366122
18.31017578125	1.8039458325928044e-15	0.09702370004128698
18.36932421875	4.765304735299156e-16	0.06779953109924779
18.51790234375	1.2269868983798635e-16	0.04618039137973471
19.232841796875	3.079436362031953e-17	0.030659889794007474
19.757875	7.533288557462739e-18	0.019841094744370243
19.258423828125	1.796304814270403e-18	0.012515342341223635
17.674666015625	0.019841094744370298	3.079436362031953e-17
17.775197265625	0.03065988979400756	1.2269868983798635e-16
18.29876171875	0.04618039137973475	4.765304735299156e-16
18.516599609375	0.06779953109924783	1.8039458325928044e-15
18.57358203125	0.09702370004128709	6.65638400498055e-15
18.5818046875	0.13533528323661276	2.3940615140956863e-14
18.608984375	0.1840035919677199	8.392943572506018e-14
18.647724609375	0.24385048692652475	2.867975008888118e-13
18.68283203125	0.31499453169676345	9.55253160529795e-13
18.735171875	0.3966107332899651	3.101299185919429e-12
18.75926953125	0.48675225595997185	9.814109704065061e-12
18.8190234375	0.5822822402018134	3.0271937126909975e-11
18.87134375	0.678955290288568	9.101470764488001e-11
18.94466015625	0.7716686738745263	2.667257870669027e-10
19.012396484375	0.8548750167246698	7.61904420899172e-10
19.116416015625	0.923116346386636	2.1213779139166125e-09
19.201791015625	0.9716107671891228	5.7572840070272345e-09
19.28077734375	0.996805114543033	1.522997974471279e-08
19.351451171875	0.996805114543033	3.927019510784439e-08
19.3688671875	0.9716107671891226	9.869811391106034e-08
19.352240234375	0.9231163463866356	2.4178909476747436e-07
19.25458984375	0.8548750167246695	5.773599123465949e-07
19.12047265625	0.7716686738745262	1.343812277631526e-06
18.98455859375	0.6789552902885677	3.0486856336898723e-06
18.86211328125	0.5822822402018133	6.741689478400731e-06
18.748697265625	0.48675225595997157	1.4531381583631438e-05
18.711810546875	0.3966107332899649	3.053002293467871e-05
18.696193359375	0.31499453169676317	6.25215037748206e-05
18.67998828125	0.24385048692652442	0.00012479976313343807
18.68756640625	0.1840035919677199	0.00024281760334162798
18.686869140625	0.1353352832366127	0.00046049894189605176
18.685732421875	0.09702370004128698	0.0008512540013105025
18.697203125	0.06779953109924779	0.0015338106793244715
18.70837890625	0.04618039137973471	0.002693806580421505
18.719537109375	0.030659889794007474	0.004611509662433067
18.73871484375	0.019841094744370298	0.007694880818387493
18.748513671875	0.01251534234122367	0.012515342341223704
18.74739453125	0.007694880818387471	0.01984109474437035
18.73698828125	0.004611509662433039	0.030659889794007626
18.765857421875	0.0026938065804214878	0.04618039137973492
18.757654296875	0.0015338106793244607	0.06779953109924805
18.7523125	0.0008512540013104993	0.09702370004128717
18.765140625	0.00046049894189605014	0.13533528323661292
18.764333984375	0.00024281760334162714	0.18400359196772018
18.753873046875	0.0001247997631334372	0.24385048692652514
18.75559765625	6.252150377482015e-05	0.314994531696764
18.7439453125	3.0530022934678436e-05	0.39661073328996577
18.7514140625	1.4531381583631387e-05	0.48675225595997207
18.7463125	6.741689478400708e-06	0.5822822402018138
18.73935546875	3.048685633689856e-06	0.6789552902885686
18.745779296875	1.343812277631519e-06	0.7716686738745268
18.7361640625	5.773599123465918e-07	0.85487501672467
18.757892578125	2.4178909476747177e-07	0.9231163463866363
18.81164453125	9.86981139110593e-08	0.9716107671891232
18.811572265625	3.927019510784397e-08	0.9968051145430331
18.856845703125	1.522997974471252e-08	0.9968051145430329
18.9179765625	5.757284007027132e-09	0.9716107671891222
18.927373046875	2.1213779139165976e-09	0.9231163463866356
18.9171328125	7.619044208991666e-10	0.8548750167246694
18.92896875	2.667257870669008e-10	0.7716686738745258
18.865123046875	9.101470764487969e-11	0.6789552902885675
18.773361328125	3.0271937126909755e-11	0.5822822402018127
18.7330625	9.81410970406499e-12	0.486752255959971
18.7182890625	3.1012991859194074e-12	0.3966107332899643
18.707736328125	9.552531605297814e-13	0.3149945316967627
18.696302734375	2.8679750088880877e-13	0.24385048692652406
18.70691015625	8.392943572505899e-14	0.1840035919677193
18.719296875	2.394061514095652e-14	0.1353352832366122
18.715828125	6.6563840049803625e-15	0.0970237000412866
18.703404296875	1.8039458325928044e-15	0.06779953109924779
18.76290234375	4.765304735299156e-16	0.04618039137973471
18.969197265625	1.2269868983798635e-16	0.030659889794007474
19.742349609375	3.079436362031953e-17	0.019841094744370243
20.0397421875	7.533288557462739e-18	0.012515342341223635
19.393880859375	1.796304814270403e-18	0.007694880818387451
17.89859765625	0.019841094744370298	3.079436362031953e-17
18.266185546875	0.03065988979400756	1.2269868983798635e-16
18.730400390625	0.04618039137973475	4.765304735299156e-16
18.881234375	0.06779953109924783	1.8039458325928044e-15
18.900505859375	0.09702370004128709	6.65638400498055e-15
18.9251875	0.13533528323661276	2.3940615140956863e-14
18.95585546875	0.1840035919677199	8.392943572506018e-14
18.987548828125	0.24385048692652475	2.867975008888118e-13
19.013919921875	0.31499453169676345	9.55253160529795e-13
19.03950390625	0.3966107332899651	3.101299185919429e-12
19.073234375	0.48675225595997185	9.814109704065061e-12
19.131373046875	0.5822822402018134	3.0271937126909975e-11
19.183970703125	0.678955290288568	9.101470764488001e-11
19.24866015625	0.7716686738745263	2.667257870669027e-10
19.337796875	0.8548750167246698	7.61904420899172e-10
19.426822265625	0.923116346386636	2.1213779139166125e-09
19.51311328125	0.9716107671891228	5.7572840070272345e-09
19.592595703125	0.996805114543033	1.522997974471279e-08
19.66069921875	0.996805114543033	3.927019510784439e-08
19.675142578125	0.9716107671891226	9.869811391106034e-08
19.64150390625	0.9231163463866356	2.4178909476747436e-07
19.53214453125	0.8548750167246695	5.773599123465949e-07
19.400322265625	0.7716686738745262	1.343812277631526e-06
19.245267578125	0.6789552902885677	3.0486856336898723e-06
19.11137109375	0.5822822402018133	6.741689478400731e-06
19.01900390625	0.48675225595997157	1.4531381583631438e-05
18.96211328125	0.3966107332899649	3.053002293467871e-05
18.936015625	0.31499453169676317	6.25215037748206e-05
18.93014453125	0.24385048692652442	0.00012479976313343807
18.916140625	0.1840035919677199	0.00024281760334162798
18.91984765625	0.1353352832366127	0.00046049894189605176
18.922271484375	0.09702370004128698	0.0008512540013105025
18.92341015625	0.06779953109924779	0.0015338106793244715
18.935814453125	0.04618039137973471	0.002693806580421505
18.929060546875	0.030659889794007474	0.004611509662433067
18.946421875	0.019841094744370298	0.007694880818387493
18.954734375	0.01251534234122367	0.012515342341223704
18.953505859375	0.007694880818387471	0.01984109474437035
18.967142578125	0.004611509662433039	0.030659889794007626
18.959416015625	0.0026938065804214878	0.04618039137973492
18.969783203125	0.0015338106793244607	0.06779953109924805
18.974115234375	0.0008512540013104993	0.09702370004128717
18.970150390625	0.00046049894189605014	0.13533528323661292
18.98145703125	0.00024281760334162714	0.18400359196772018
18.962646484375	0.0001247997631334372	0.24385048692652514
18.967986328125	6.252150377482015e-05	0.314994531696764
18.96033203125	3.0530022934678436e-05	0.39661073328996577
18.951982421875	1.4531381583631387e-05	0.48675225595997207
18.9610859375	6.741689478400708e-06	0.5822822402018138
18.9586640625	3.048685633689856e-06	0.6789552902885686
18.9450078125	1.343812277631519e-06	0.7716686738745268
18.954919921875	5.773599123465918e-07	0.85487501672467
18.95748828125	2.4178909476747177e-07	0.9231163463866363
19.011701171875	9.86981139110593e-08	0.9716107671891232
19.035685546875	3.927019510784397e-08	0.9968051145430331
19.07183984375	1.522997974471252e-08	0.9968051145430329
19.138548828125	5.757284007027132e-09	0.9716107671891222
19.1559296875	2.1213779139165976e-09	0.9231163463866356
19.139576171875	7.619044208991666e-10	0.8548750167246694
19.13884375	2.667257870669008e-10	0.7716686738745258
19.0681875	9.101470764487969e-11	0.6789552902885675
18.982482421875	3.0271937126909755e-11	0.5822822402018127
18.933998046875	9.81410970406499e-12	0.486752255959971
18.92694921875	3.1012991859194074e-12	0.3966107332899643
18.921333984375	9.552531605297814e-13	0.3149945316967627
18.918490234375	2.8679750088880877e-13	0.24385048692652406
18.9174453125	8.392943572505899e-14	0.1840035919677193
18.92047265625	2.394061514095652e-14	0.1353352832366122
18.926822265625	6.6563840049803625e-15	0.0970237000412866
18.9251875	1.8039458325928044e-15	0.06779953109924779
18.998193359375	4.765304735299156e-16	0.04618039137973471
19.179583984375	1.2269868983798635e-16	0.030659889794007474
19.92341015625	3.079436362031953e-17	0.019841094744370243
20.16868359375	7.533288557462739e-18	0.012515342341223635
19.473986328125	1.796304814270403e-18	0.007694880818387451
18.032236328125	0.019841094744370298	3.079436362031953e-17
18.460111328125	0.03065988979400756	1.2269868983798635e-16
18.926326171875	0.04618039137973475	4.765304735299156e-16
19.0785	0.06779953109924783	1.8039458325928044e-15
19.098724609375	0.09702370004128709	6.65638400498055e-15
19.124876953125	0.13533528323661276	2.3940615140956863e-14
19.149248046875	0.1840035919677199	8.392943572506018e-14
19.177236328125	0.24385048692652475	2.867975008888118e-13
19.19580859375	0.31499453169676345	9.55253160529795e-13
19.22074609375	0.3966107332899651	3.101299185919429e-12
19.26622265625	0.48675225595997185	9.814109704065061e-12
19.307552734375	0.5822822402018134	3.0271937126909975e-11
19.358076171875	0.678955290288568	9.101470764488001e-11
19.418490234375	0.7716686738745263	2.667257870669027e-10
19.499478515625	0.8548750167246698	7.61904420899172e-10
19.57699609375	0.923116346386636	2.1213779139166125e-09
19.657140625	0.9716107671891228	5.7572840070272345e-09
19.750900390625	0.996805114543033	1.522997974471279e-08
19.806212890625	0.996805114543033	3.927019510784439e-08
19.798064453125	0.9716107671891226	9.869811391106034e-08
19.766041015625	0.9231163463866356	2.4178909476747436e-07
19.677638671875	0.8548750167246695	5.773599123465949e-07
19.529576171875	0.7716686738745262	1.343812277631526e-06
19.403349609375	0.6789552902885677	3.0486856336898723e-06
19.27962109375	0.5822822402018133	6.741689478400731e-06
19.186486328125	0.48675225595997157	1.4531381583631438e-05
19.133208984375	0.3966107332899649	3.053002293467871e-05
19.110947265625	0.31499453169676317	6.25215037748206e-05
19.099533203125	0.24385048692652442	0.00012479976313343807
19.08575	0.1840035919677199	0.00024281760334162798
19.079638671875	0.1353352832366127	0.00046049894189605176
19.089146484375	0.09702370004128698	0.0008512540013105025
19.098302734375	0.06779953109924779	0.0015338106793244715
19.085052734375	0.04618039137973471	0.002693806580421505
19.09002734375	0.030659889794007474	0.004611509662433067
19.09382421875	0.019841094744370298	0.007694880818387493
19.1070390625	0.01251534234122367	0.012515342341223704
19.09276171875	0.007694880818387471	0.01984109474437035
19.095109375	0.004611509662433039	0.030659889794007626
19.0991484375	0.0026938065804214878	0.04618039137973492
19.1039921875	0.0015338106793244607	0.06779953109924805
19.096833984375	0.0008512540013104993	0.09702370004128717
19.095	0.00046049894189605014	0.13533528323661292
19.088578125	0.00024281760334162714	0.18400359196772018
19.083310546875	0.0001247997631334372	0.24385048692652514
19.077712890625	6.252150377482015e-05	0.314994531696764
19.06211328125	3.0530022934678436e-05	0.39661073328996577
19.054900390625	1.4531381583631387e-05	0.48675225595997207
19.06279296875	6.741689478400708e-06	0.5822822402018138
19.0477421875	3.048685633689856e-06	0.6789552902885686
19.043541015625	1.343812277631519e-06	0.7716686738745268
19.0368046875	5.773599123465918e-07	0.85487501672467
19.032365234375	2.4178909476747177e-07	0.9231163463866363
19.0571015625	9.86981139110593e-08	0.9716107671891232
19.102302734375	3.927019510784397e-08	0.9968051145430331
19.104669921875	1.522997974471252e-08	0.9968051145430329
19.151708984375	5.757284007027132e-09	0.9716107671891222
19.207626953125	2.1213779139165976e-09	0.9231163463866356
19.185052734375	7.619044208991666e-10	0.8548750167246694
19.18833984375	2.667257870669008e-10	0.7716686738745258
19.154001953125	9.101470764487969e-11	0.6789552902885675
19.065708984375	3.0271937126909755e-11	0.5822822402018127
18.9908515625	9.81410970406499e-12	0.486752255959971
18.955212890625	3.1012991859194074e-12	0.3966107332899643
18.95286328125	9.552531605297814e-13	0.3149945316967627
18.946990234375	2.8679750088880877e-13	0.24385048692652406
18.92694921875	8.392943572505899e-14	0.1840035919677193
18.92788671875	2.394061514095652e-14	0.1353352832366122
18.933080078125	6.6563840049803625e-15	0.0970237000412866
18.937283203125	1.8039458325928044e-15	0.06779953109924779
18.974755859375	4.765304735299156e-16	0.04618039137973471
18.9845390625	1.2269868983798635e-16	0.030659889794007474
19.4319609375	3.079436362031953e-17	0.019841094744370243
20.247376953125	7.533288557462739e-18	0.012515342341223635
20.247525390625	1.796304814270403e-18	0.007694880818387451
18.876189453125	4.175010055850544e-19	0.004611509662433027
18.055892578125	0.019841094744370298	1.5279799682872937e-17
18.60246875	0.03065988979400756	6.16659351490994e-17
18.95084375	0.04618039137973475	2.4258002935511285e-16
19.016931640625	0.06779953109924783	9.301368016640084e-16
19.03445703125	0.09702370004128709	3.476327411194989e-15
19.04418359375	0.13533528323661276	1.2664165549094176e-14
19.068939453125	0.1840035919677199	4.4969136320232955e-14
19.0925234375	0.24385048692652475	1.55644785504638e-13
19.11779296875	0.31499453169676345	5.25093527797419e-13
19.158462890625	0.3966107332899651	1.72671561546875e-12
19.20507421875	0.48675225595997185	5.534610071700974e-12
19.256734375	0.5822822402018134	1.7291604867152204e-11
19.310599609375	0.678955290288568	5.2658154923891826e-11
19.389330078125	0.7716686738745263	1.5630685836019022e-10
19.457689453125	0.8548750167246698	4.522436647695059e-10
19.5584609375	0.923116346386636	1.2754076295260396e-09
19.64398046875	0.9716107671891228	3.505965117042003e-09
19.709205078125	0.996805114543033	9.393949736049535e-09
19.752240234375	0.996805114543033	2.4534145397154446e-08
19.740568359375	0.9716107671891226	6.245622035317723e-08
19.681548828125	0.9231163463866356	1.5497531357028912e-07
19.59219140625	0.8548750167246695	3.7482746881752084e-07
19.45101171875	0.7716686738745262	8.836542241315566e-07
19.308103515625	0.6789552902885677	2.0305578494036726e-06
19.210123046875	0.5822822402018133	4.548104523682639e-06
19.128216796875	0.48675225595997157	9.929504305851047e-06
19.10863671875	0.3966107332899649	2.113035343044194e-05
19.09329296875	0.31499453169676317	4.382965126946305e-05
19.070849609375	0.24385048692652442	8.861583426604922e-05
19.061470703125	0.1840035919677199	0.00017463717883977855
19.054587890625	0.1353352832366127	0.0003354626279025107
19.05517578125	0.09702370004128698	0.0006281070149764959
19.062076171875	0.06779953109924779	0.0011463182433300535
19.07325390625	0.04618039137973471	0.002039195319842277
19.079638671875	0.030659889794007474	0.003535855501507573
19.0882265625	0.019841094744370298	0.005976022895005923
19.090431640625	0.01251534234122367	0.009844916976392417
19.08690625	0.007694880818387471	0.015808618705241806
19.092099609375	0.004611509662433039	0.02474331320515426
19.09292578125	0.0026938065804214878	0.03774886009129893
19.093751953125	0.0015338106793244607	0.056134762834133684
19.09321875	0.0008512540013104993	0.0813658196645251
19.092228515625	0.00046049894189605014	0.11495667048603483
19.07646484375	0.00024281760334162714	0.15831002262193852
19.068646484375	0.0001247997631334372	0.21250282427502182
19.0578203125	6.252150377482015e-05	0.27803730045319386
19.063857421875	3.0530022934678436e-05	0.35458754856089875
19.036732421875	1.4531381583631387e-05	0.4407841408053239
19.038384765625	6.741689478400708e-06	0.5340851477595165
19.0273359375	3.048685633689856e-06	0.6307788205474278
19.013462890625	1.343812277631519e-06	0.7261490370736906
19.02030859375	5.773599123465918e-07	0.8148102621687291
19.044734375	2.4178909476747177e-07	0.8911878885041843
19.06326953125	9.86981139110593e-08	0.9500886338026269
19.09121875	3.927019510784397e-08	0.9872815715902905
19.11920703125	1.522997974471252e-08	1.0
19.180318359375	5.757284007027132e-09	0.9872815715902905
19.1470078125	2.1213779139165976e-09	0.9500886338026274
19.16033203125	7.619044208991666e-10	0.8911878885041852
19.12421484375	2.667257870669008e-10	0.8148102621687301
19.026693359375	9.101470764487969e-11	0.7261490370736916
18.967177734375	3.0271937126909755e-11	0.6307788205474288
18.920619140625	9.81410970406499e-12	0.5340851477595175
18.905625	3.1012991859194074e-12	0.4407841408053249
18.905771484375	9.552531605297814e-13	0.3545875485608993
18.89208203125	2.8679750088880877e-13	0.2780373004531943
18.88745703125	8.392943572505899e-14	0.21250282427502212
18.896908203125	2.394061514095652e-14	0.15831002262193877
18.895677734375	6.6563840049803625e-15	0.11495667048603504
18.9506796875	1.8039458325928044e-15	0.08136581966452558
18.958974609375	4.765304735299156e-16	0.0561347628341339
19.504376953125	1.2269868983798635e-16	0.037748860091299116
20.290908203125	3.079436362031953e-17	0.024743313205154382
20.223080078125	7.533288557462739e-18	0.015808618705241893
18.720748046875	1.796304814270403e-18	0.009844916976392469
18.088759765625	0.019841094744370298	3.079436362031953e-17
18.65943359375	0.03065988979400756	1.2269868983798635e-16
18.9786484375	0.04618039137973475	4.765304735299156e-16
19.048255859375	0.06779953109924783	1.8039458325928044e-15
19.073859375	0.09702370004128709	6.65638400498055e-15
19.09687109375	0.13533528323661276	2.3940615140956863e-14
19.117775390625	0.1840035919677199	8.392943572506018e-14
19.1496171875	0.24385048692652475	2.867975008888118e-13
19.181162109375	0.31499453169676345	9.55253160529795e-13
19.226712890625	0.3966107332899651	3.101299185919429e-12
19.24946875	0.48675225595997185	9.814109704065061e-12
19.302029296875	0.5822822402018134	3.0271937126909975e-11
19.3643515625	0.678955290288568	9.101470764488001e-11
19.433576171875	0.7716686738745263	2.667257870669027e-10
19.517681640625	0.8548750167246698	7.61904420899172e-10
19.60846875	0.923116346386636	2.1213779139166125e-09
19.690724609375	0.9716107671891228	5.7572840070272345e-09
19.76137890625	0.996805114543033	1.522997974471279e-08
19.792376953125	0.996805114543033	3.927019510784439e-08
19.77888671875	0.9716107671891226	9.869811391106034e-08
19.718857421875	0.9231163463866356	2.4178909476747436e-07
19.59518359375	0.8548750167246695	5.773599123465949e-07
19.4310625	0.7716686738745262	1.343812277631526e-06
19.2923203125	0.6789552902885677	3.0486856336898723e-06
19.18393359375	0.5822822402018133	6.741689478400731e-06
19.109865234375	0.48675225595997157	1.4531381583631438e-05
19.072298828125	0.3966107332899649	3.053002293467871e-05
19.055873046875	0.31499453169676317	6.25215037748206e-05
19.047064453125	0.24385048692652442	0.00012479976313343807
19.038806640625	0.1840035919677199	0.00024281760334162798
19.0302734375	0.1353352832366127	0.00046049894189605176
19.03803515625	0.09702370004128698	0.0008512540013105025
19.036916015625	0.06779953109924779	0.0015338106793244715
19.030822265625	0.04618039137973471	0.002693806580421505
19.05258984375	0.030659889794007474	0.004611509662433067
19.050845703125	0.019841094744370298	0.007694880818387493
19.0558359375	0.01251534234122367	0.012515342341223704
19.06389453125	0.007694880818387471	0.01984109474437035
19.06316015625	0.004611509662433039	0.030659889794007626
19.06279296875	0.0026938065804214878	0.04618039137973492
19.061892578125	0.0015338106793244607	0.06779953109924805
19.0555625	0.0008512540013104993	0.09702370004128717
19.051890625	0.00046049894189605014	0.13533528323661292
19.053947265625	0.00024281760334162714	0.18400359196772018
19.045908203125	0.0001247997631334372	0.24385048692652514
19.03882421875	6.252150377482015e-05	0.314994531696764
19.031888671875	3.0530022934678436e-05	0.39661073328996577
19.030712890625	1.4531381583631387e-05	0.48675225595997207
19.030345703125	6.741689478400708e-06	0.5822822402018138
19.02021484375	3.048685633689856e-06	0.6789552902885686
19.0244375	1.343812277631519e-06	0.7716686738745268
19.01164453125	5.773599123465918e-07	0.85487501672467
19.019298828125	2.4178909476747177e-07	0.9231163463866363
19.06058984375	9.86981139110593e-08	0.9716107671891232
19.079767578125	3.927019510784397e-08	0.9968051145430331
19.105423828125	1.522997974471252e-08	0.9968051145430329
19.16301171875	5.757284007027132e-09	0.9716107671891222
19.186228515625	2.1213779139165976e-09	0.9231163463866356
19.16471875	7.619044208991666e-10	0.8548750167246694
19.155615234375	2.667257870669008e-10	0.7716686738745258
19.116912109375	9.101470764487969e-11	0.6789552902885675
19.0165078125	3.0271937126909755e-11	0.5822822402018127
18.96411328125	9.81410970406499e-12	0.486752255959971
18.95	3.1012991859194074e-12	0.3966107332899643
18.941615234375	9.552531605297814e-13	0.3149945316967627
18.939134765625	2.8679750088880877e-13	0.24385048692652406
18.92605078125	8.392943572505899e-14	0.1840035919677193
18.9403828125	2.394061514095652e-14	0.1353352832366122
18.927373046875	6.6563840049803625e-15	0.0970237000412866
18.925849609375	1.8039458325928044e-15	0.06779953109924779
18.992412109375	4.765304735299156e-16	0.04618039137973471
19.1551015625	1.2269868983798635e-16	0.030659889794007474
19.88966015625	3.079436362031953e-17	0.019841094744370243
20.22751953125	7.533288557462739e-18	0.012515342341223635
19.709591796875	1.796304814270403e-18	0.007694880818387451
18.14724609375	0.019841094744370298	3.079436362031953e-17
18.443705078125	0.03065988979400756	1.2269868983798635e-16
18.931392578125	0.04618039137973475	4.765304735299156e-16
19.092265625	0.06779953109924783	1.8039458325928044e-15
19.112748046875	0.09702370004128709	6.65638400498055e-15
19.12656640625	0.13533528323661276	2.3940615140956863e-14
19.153744140625	0.1840035919677199	8.392943572506018e-14
19.18119921875	0.24385048692652475	2.867975008888118e-13
19.21111328125	0.31499453169676345	9.55253160529795e-13
19.245744140625	0.3966107332899651	3.101299185919429e-12
19.285767578125	0.48675225595997185	9.814109704065061e-12
19.334072265625	0.5822822402018134	3.0271937126909975e-11
19.377896484375	0.678955290288568	9.101470764488001e-11
19.445376953125	0.7716686738745263	2.667257870669027e-10
19.52414453125	0.8548750167246698	7.61904420899172e-10
19.61032421875	0.923116346386636	2.1213779139166125e-09
19.71795703125	0.9716107671891228	5.7572840070272345e-09
19.778263671875	0.996805114543033	1.522997974471279e-08
19.860865234375	0.996805114543033	3.927019510784439e-08
19.87126953125	0.9716107671891226	9.869811391106034e-08
19.84240234375	0.9231163463866356	2.4178909476747436e-07
19.7417421875	0.8548750167246695	5.773599123465949e-07
19.59980859375	0.7716686738745262	1.343812277631526e-06
19.444275390625	0.6789552902885677	3.0486856336898723e-06
19.316197265625	0.5822822402018133	6.741689478400731e-06
19.213296875	0.48675225595997157	1.4531381583631438e-05
19.15754296875	0.3966107332899649	3.053002293467871e-05
19.1176640625	0.31499453169676317	6.25215037748206e-05
19.1085625	0.24385048692652442	0.00012479976313343807
19.101697265625	0.1840035919677199	0.00024281760334162798
19.08833984375	0.1353352832366127	0.00046049894189605176
19.091109375	0.09702370004128698	0.0008512540013105025
19.089732421875	0.06779953109924779	0.0015338106793244715
19.08771484375	0.04618039137973471	0.002693806580421505
19.074373046875	0.030659889794007474	0.004611509662433067
19.082943359375	0.019841094744370298	0.007694880818387493
19.088412109375	0.01251534234122367	0.012515342341223704
19.090044921875	0.007694880818387471	0.01984109474437035
19.07756640625	0.004611509662433039	0.030659889794007626
19.0843203125	0.0026938065804214878	0.04618039137973492
19.0861171875	0.0015338106793244607	0.06779953109924805
19.095146484375	0.0008512540013104993	0.09702370004128717
19.081896484375	0.00046049894189605014	0.13533528323661292
19.07789453125	0.00024281760334162714	0.18400359196772018
19.075765625	0.0001247997631334372	0.24385048692652514
19.0769609375	6.252150377482015e-05	0.314994531696764
19.07956640625	3.0530022934678436e-05	0.39661073328996577
19.0642421875	1.4531381583631387e-05	0.48675225595997207
19.05260546875	6.741689478400708e-06	0.5822822402018138
19.06369140625	3.048685633689856e-06	0.6789552902885686
19.061287109375	1.343812277631519e-06	0.7716686738745268
19.06137890625	5.773599123465918e-07	0.85487501672467
19.0599296875	2.4178909476747177e-07	0.9231163463866363
19.054166015625	9.86981139110593e-08	0.9716107671891232
19.059984375	3.927019510784397e-08	0.9968051145430331
19.0794375	1.522997974471252e-08	0.9968051145430329
19.11584765625	5.757284007027132e-09	0.9716107671891222
19.147431640625	2.1213779139165976e-09	0.9231163463866356
19.180447265625	7.619044208991666e-10	0.8548750167246694
19.24649609375	2.667257870669008e-10	0.7716686738745258
19.214306640625	9.101470764487969e-11	0.6789552902885675
19.217130859375	3.0271937126909755e-11	0.5822822402018127
19.190796875	9.81410970406499e-12	0.486752255959971
19.0976796875	3.1012991859194074e-12	0.3966107332899643
19.03498828125	9.552531605297814e-13	0.3149945316967627
18.995568359375	2.8679750088880877e-13	0.24385048692652406
18.97993359375	8.392943572505899e-14	0.1840035919677193
18.98635546875	2.394061514095652e-14	0.1353352832366122
18.982923828125	6.6563840049803625e-15	0.0970237000412866
18.977216796875	1.8039458325928044e-15	0.06779953109924779
18.97600390625	4.765304735299156e-16	0.04618039137973471
18.983916015625	1.2269868983798635e-16	0.030659889794007474
19.030640625	3.079436362031953e-17	0.019841094744370243
19.04713671875	7.533288557462739e-18	0.012515342341223635
19.504763671875	1.796304814270403e-18	0.007694880818387451
20.18290625	4.175010055850544e-19	0.004611509662433027
20.187697265625	9.458386988221946e-20	0.0026938065804214782
18.730013671875	2.0886164474088106e-20	0.0015338106793244565
18.17815234375	0.019841094744370298	3.6903882668765605e-18
18.762609375	0.03065988979400756	1.5279799682872937e-17
19.080337890625	0.04618039137973475	6.16659351490994e-17
19.15009375	0.06779953109924783	2.4258002935511285e-16
19.169197265625	0.09702370004128709	9.301368016640084e-16
19.181841796875	0.13533528323661276	3.476327411194989e-15
19.2066171875	0.1840035919677199	1.2664165549094176e-14
19.2264921875	0.24385048692652475	4.4969136320232955e-14
19.258130859375	0.31499453169676345	1.55644785504638e-13
19.2788125	0.3966107332899651	5.250935277974171e-13
19.311609375	0.48675225595997185	1.72671561546875e-12
19.356443359375	0.5822822402018134	5.534610071700974e-12
19.41426953125	0.678955290288568	1.7291604867152204e-11
19.48367578125	0.7716686738745263	5.2658154923891826e-11
19.56796875	0.8548750167246698	1.5630685836019022e-10
19.657927734375	0.923116346386636	4.522436647695059e-10
19.742587890625	0.9716107671891228	1.2754076295260396e-09
19.802470703125	0.996805114543033	3.505965117042003e-09
19.85001953125	0.996805114543033	9.39394973604947e-09
19.828767578125	0.9716107671891226	2.4534145397154446e-08
19.790798828125	0.9231163463866356	6.245622035317723e-08
19.65249609375	0.8548750167246695	1.549753135702883e-07
19.501185546875	0.7716686738745262	3.7482746881752084e-07
19.365783203125	0.6789552902885677	8.836542241315566e-07
19.24108203125	0.5822822402018133	2.0305578494036726e-06
19.16848046875	0.48675225595997157	4.548104523682639e-06
19.1320703125	0.3966107332899649	9.929504305851047e-06
19.1036796875	0.31499453169676317	2.113035343044194e-05
19.0875859375	0.24385048692652442	4.382965126946305e-05
19.08072265625	0.1840035919677199	8.861583426604892e-05
19.08508984375	0.1353352832366127	0.00017463717883977855
19.084154296875	0.09702370004128698	0.0003354626279025107
19.08514453125	0.06779953109924779	0.0006281070149764959
19.08134765625	0.04618039137973471	0.0011463182433300535
19.0718203125	0.030659889794007474	0.002039195319842277
19.075216796875	0.019841094744370298	0.00353585550150756
19.076869140625	0.01251534234122367	0.005976022895005923
19.064626953125	0.007694880818387471	0.009844916976392417
19.07194921875	0.004611509662433039	0.015808618705241806
19.07730859375	0.0026938065804214878	0.02474331320515426
19.072703125	0.0015338106793244607	0.03774886009129893
19.070041015625	0.0008512540013104993	0.05613476283413355
19.06503125	0.00046049894189605014	0.0813658196645251
19.0561484375	0.00024281760334162714	0.11495667048603483
19.038896484375	0.0001247997631334372	0.15831002262193852
19.03682421875	6.252150377482015e-05	0.21250282427502182
19.0199765625	3.0530022934678436e-05	0.27803730045319386
19.010947265625	1.4531381583631387e-05	0.3545875485608983
19.00138671875	6.741689478400708e-06	0.4407841408053239
18.999349609375	3.048685633689856e-06	0.5340851477595165
18.98776953125	1.343812277631519e-06	0.6307788205474278
18.986650390625	5.773599123465918e-07	0.7261490370736906
18.980501953125	2.4178909476747177e-07	0.8148102621687291
18.962150390625	9.86981139110593e-08	0.8911878885041843
18.977603515625	3.927019510784397e-08	0.9500886338026269
18.9796953125	1.522997974471252e-08	0.9872815715902905
19.02526171875	5.757284007027132e-09	1.0
19.023572265625	2.1213779139165976e-09	0.9872815715902907
19.06842578125	7.619044208991666e-10	0.9500886338026274
19.12205078125	2.667257870669008e-10	0.8911878885041852
19.083638671875	9.101470764487969e-11	0.8148102621687301
19.101240234375	3.0271937126909755e-11	0.7261490370736916
19.06148828125	9.81410970406499e-12	0.6307788205474288
18.967306640625	3.1012991859194074e-12	0.5340851477595175
18.900541015625	9.552531605297814e-13	0.4407841408053249
18.84946875	2.8679750088880877e-13	0.3545875485608993
18.84339453125	8.392943572505899e-14	0.2780373004531943
18.826876953125	2.394061514095652e-14	0.21250282427502212
18.819921875	6.6563840049803625e-15	0.15831002262193877
18.810783203125	1.8039458325928044e-15	0.11495667048603549
18.82221484375	4.765304735299156e-16	0.08136581966452558
18.807076171875	1.2269868983798635e-16	0.0561347628341339
18.85333984375	3.079436362031953e-17	0.037748860091299116
18.86363671875	7.533288557462739e-18	0.024743313205154382
19.305736328125	1.796304814270403e-18	0.015808618705241893
20.118435546875	4.175010055850544e-19	0.009844916976392469
20.1561484375	9.458386988221946e-20	0.005976022895005958
18.77589453125	2.0886164474088106e-20	0.0035358555015075816
17.96011328125	0.019841094744370298	3.6903882668765605e-18
18.51390234375	0.03065988979400756	1.5279799682872937e-17
18.845541015625	0.04618039137973475	6.16659351490994e-17
18.91865625	0.06779953109924783	2.4258002935511285e-16
18.92741015625	0.09702370004128709	9.301368016640084e-16
18.947357421875	0.13533528323661276	3.476327411194989e-15
18.97483203125	0.1840035919677199	1.2664165549094176e-14
18.986759765625	0.24385048692652475	4.4969136320232955e-14
19.01603125	0.31499453169676345	1.55644785504638e-13
19.0488984375	0.3966107332899651	5.250935277974171e-13
19.0906875	0.48675225595997185	1.72671561546875e-12
19.125080078125	0.5822822402018134	5.534610071700974e-12
19.17462890625	0.678955290288568	1.7291604867152204e-11
19.2404765625	0.7716686738745263	5.2658154923891826e-11
19.31863671875	0.8548750167246698	1.5630685836019022e-10
19.39907421875	0.923116346386636	4.522436647695059e-10
19.4737109375	0.9716107671891228	1.2754076295260396e-09
19.54308203125	0.996805114543033	3.505965117042003e-09
19.566921875	0.996805114543033	9.39394973604947e-09
19.566388671875	0.9716107671891226	2.4534145397154446e-08
19.516251953125	0.9231163463866356	6.245622035317723e-08
19.411517578125	0.8548750167246695	1.549753135702883e-07
19.253744140625	0.7716686738745262	3.7482746881752084e-07
19.111701171875	0.6789552902885677	8.836542241315566e-07
19.00028515625	0.5822822402018133	2.0305578494036726e-06
18.912837890625	0.48675225595997157	4.548104523682639e-06
18.875546875	0.3966107332899649	9.929504305851047e-06
18.849193359375	0.31499453169676317	2.113035343044194e-05
18.83608984375	0.24385048692652442	4.382965126946305e-05
18.830455078125	0.1840035919677199	8.861583426604892e-05
18.801751953125	0.1353352832366127	0.00017463717883977855
18.80301953125	0.09702370004128698	0.0003354626279025107
18.807349609375	0.06779953109924779	0.0006281070149764959
18.79753125	0.04618039137973471	0.0011463182433300535
18.80338671875	0.030659889794007474	0.002039195319842277
18.8019921875	0.019841094744370298	0.00353585550150756
18.802669921875	0.01251534234122367	0.005976022895005923
18.800083984375	0.007694880818387471	0.009844916976392417
18.788779296875	0.004611509662433039	0.015808618705241806
18.809625	0.0026938065804214878	0.02474331320515426
18.787365234375	0.0015338106793244607	0.03774886009129893
18.775693359375	0.0008512540013104993	0.05613476283413355
18.76903125	0.00046049894189605014	0.0813658196645251
18.7600390625	0.00024281760334162714	0.11495667048603483
18.750404296875	0.0001247997631334372	0.15831002262193852
18.746751953125	6.252150377482015e-05	0.21250282427502182
18.734125	3.0530022934678436e-05	0.27803730045319386
18.727060546875	1.4531381583631387e-05	0.3545875485608983
18.71201171875	6.741689478400708e-06	0.4407841408053239
18.699826171875	3.048685633689856e-06	0.5340851477595165
18.6922109375	1.343812277631519e-06	0.6307788205474278
18.68661328125	5.773599123465918e-07	0.7261490370736906
18.682849609375	2.4178909476747177e-07	0.8148102621687291
18.702103515625	9.86981139110593e-08	0.8911878885041843
18.716140625	3.927019510784397e-08	0.9500886338026269
18.730546875	1.522997974471252e-08	0.9872815715902905
18.782685546875	5.757284007027132e-09	1.0
18.82283984375	2.1213779139165976e-09	0.9872815715902907
18.77451953125	7.619044208991666e-10	0.9500886338026274
18.7979921875	2.667257870669008e-10	0.8911878885041852
18.7745	9.101470764487969e-11	0.8148102621687301
18.673326171875	3.0271937126909755e-11	0.7261490370736916
18.583107421875	9.81410970406499e-12	0.6307788205474288
18.5602578125	3.1012991859194074e-12	0.5340851477595175
18.55359765625	9.552531605297814e-13	0.4407841408053249
18.5298671875	2.8679750088880877e-13	0.3545875485608993
18.533705078125	8.392943572505899e-14	0.2780373004531943
18.53651171875	2.394061514095652e-14	0.21250282427502212
18.53104296875	6.6563840049803625e-15	0.15831002262193877
18.518416015625	1.8039458325928044e-15	0.11495667048603549
18.568994140625	4.765304735299156e-16	0.08136581966452558
18.608158203125	1.2269868983798635e-16	0.0561347628341339
19.215681640625	3.079436362031953e-17	0.037748860091299116
19.920455078125	7.533288557462739e-18	0.024743313205154382
19.75780078125	1.796304814270403e-18	0.015808618705241893
18.161673828125	0.019841094744370298	3.079436362031953e-17
17.750716796875	0.03065988979400756	1.2269868983798635e-16
18.315150390625	0.04618039137973475	4.765304735299156e-16
