3.7716298828125	0.004611509662433039	0.056134762834133684
3.70075439453125	0.0026938065804214878	0.08136581966452526
3.68581591796875	0.0015338106793244607	0.11495667048603504
3.7022958984375	0.0008512540013104993	0.15831002262193852
3.697542724609375	0.00046049894189605014	0.21250282427502182
3.6876142578125	0.00024281760334162714	0.27803730045319386
3.677869384765625	0.0001247997631334372	0.35458754856089875
3.674859619140625	6.252150377482015e-05	0.44078414080532435
3.659223876953125	3.0530022934678436e-05	0.534085147759517
3.642706787109375	1.4531381583631387e-05	0.6307788205474278
3.63204443359375	6.741689478400708e-06	0.7261490370736906
3.612481201171875	3.048685633689856e-06	0.8148102621687291
3.613013427734375	1.343812277631519e-06	0.8911878885041843
3.642945556640625	5.773599123465918e-07	0.9500886338026269
3.633402587890625	2.4178909476747177e-07	0.9872815715902905
3.667408935546875	9.86981139110593e-08	1.0
3.694367919921875	3.927019510784397e-08	0.9872815715902905
3.674327392578125	1.522997974471252e-08	0.9500886338026269
3.673721923828125	5.757284007027132e-09	0.8911878885041843
3.672033447265625	2.1213779139165976e-09	0.8148102621687301
3.573519775390625	7.619044208991666e-10	0.7261490370736916
3.485338623046875	2.667257870669008e-10	0.6307788205474288
3.40629638671875	9.101470764487969e-11	0.5340851477595175
3.3797412109375	3.0271937126909755e-11	0.4407841408053249
3.342927001953125	9.81410970406499e-12	0.3545875485608993
3.33769677734375	3.1012991859194074e-12	0.2780373004531943
3.310223876953125	9.552531605297814e-13	0.21250282427502212
3.279484130859375	2.8679750088880877e-13	0.15831002262193877
3.28251220703125	8.392943572505899e-14	0.11495667048603504
3.2795576171875	2.394061514095652e-14	0.08136581966452526
3.274088623046875	6.6563840049803625e-15	0.056134762834133684
3.606828857421875	1.8039458325928044e-15	0.037748860091299116
4.364380859375	4.765304735299156e-16	0.024743313205154382
4.43120068359375	1.2269868983798635e-16	0.015808618705241893
3.1585078125	3.079436362031953e-17	0.009844916976392469
2.1216015625	0.019841094744370298	1.2269868983798635e-16
2.7973955078125	0.03065988979400756	4.765304735299156e-16
3.2585078125	0.04618039137973475	1.8039458325928044e-15
3.340339599609375	0.06779953109924783	6.65638400498055e-15
3.346634033203125	0.09702370004128709	2.3940615140956863e-14
3.36531640625	0.13533528323661276	8.392943572506018e-14
3.420611083984375	0.1840035919677199	2.867975008888118e-13
3.435824951171875	0.24385048692652475	9.55253160529795e-13
3.46704150390625	0.31499453169676345	3.1012991859194514e-12
3.48023681640625	0.3966107332899651	9.814109704065061e-12
3.50826025390625	0.48675225595997185	3.0271937126909975e-11
3.55035986328125	0.5822822402018134	9.101470764488001e-11
3.58669677734375	0.678955290288568	2.667257870669027e-10
3.619455078125	0.7716686738745263	7.61904420899172e-10
3.6753369140625	0.8548750167246698	2.1213779139166125e-09
3.721400390625	0.923116346386636	5.7572840070272345e-09
3.74501953125	0.9716107671891228	1.522997974471279e-08
3.77140966796875	0.996805114543033	3.9270195107844665e-08
3.7954873046875	0.996805114543033	9.869811391106034e-08
3.7392568359375	0.9716107671891226	2.4178909476747436e-07
3.637274658203125	0.9231163463866356	5.773599123465981e-07
3.458985107421875	0.8548750167246695	1.343812277631526e-06
3.29198193359375	0.7716686738745262	3.0486856336898723e-06
3.12529052734375	0.6789552902885677	6.741689478400731e-06
3.0313466796875	0.5822822402018133	1.4531381583631438e-05
2.91336181640625	0.48675225595997157	3.053002293467871e-05
2.86184765625	0.3966107332899649	6.25215037748206e-05
2.8387607421875	0.31499453169676317	0.00012479976313343807
2.80414892578125	0.24385048692652442	0.00024281760334162887
2.781979736328125	0.1840035919677199	0.00046049894189605176
2.761553955078125	0.1353352832366127	0.0008512540013105025
2.737934814453125	0.09702370004128698	0.0015338106793244715
2.74933154296875	0.06779953109924779	0.002693806580421505
2.743000244140625	0.04618039137973471	0.004611509662433067
2.762489990234375	0.030659889794007474	0.0076948808183875134
2.7577001953125	0.019841094744370298	0.012515342341223704
2.760617919921875	0.01251534234122367	0.01984109474437035
2.75212109375	0.007694880818387471	0.030659889794007626
2.764031494140625	0.004611509662433039	0.04618039137973492
2.75498388671875	0.0026938065804214878	0.06779953109924805
2.7632607421875	0.0015338106793244607	0.09702370004128733
2.76762841796875	0.0008512540013104993	0.13533528323661292
2.745147216796875	0.00046049894189605014	0.18400359196772018
2.742981689453125	0.00024281760334162714	0.24385048692652514
2.743734375	0.0001247997631334372	0.314994531696764
2.7176376953125	6.252150377482015e-05	0.39661073328996577
2.7152333984375	3.0530022934678436e-05	0.48675225595997257
2.693651611328125	1.4531381583631387e-05	0.5822822402018138
2.72193212890625	6.741689478400708e-06	0.6789552902885686
2.715123291015625	3.048685633689856e-06	0.7716686738745268
2.702368896484375	1.343812277631519e-06	0.85487501672467
2.71864697265625	5.773599123465918e-07	0.9231163463866363
2.750744873046875	2.4178909476747177e-07	0.9716107671891232
2.768931396484375	9.86981139110593e-08	0.9968051145430331
2.801304443359375	3.927019510784397e-08	0.9968051145430329
2.8331083984375	1.522997974471252e-08	0.9716107671891222
2.779997802734375	5.757284007027132e-09	0.923116346386635
2.79884521484375	2.1213779139165976e-09	0.8548750167246694
2.75002880859375	7.619044208991666e-10	0.7716686738745258
2.6456611328125	2.667257870669008e-10	0.6789552902885675
2.56515087890625	9.101470764487969e-11	0.5822822402018127
2.527290771484375	3.0271937126909755e-11	0.486752255959971
2.5144443359375	9.81410970406499e-12	0.3966107332899643
2.512444091796875	3.1012991859194074e-12	0.3149945316967627
2.50651611328125	9.552531605297814e-13	0.24385048692652406
2.507397216796875	2.8679750088880877e-13	0.1840035919677193
2.49548681640625	8.392943572505899e-14	0.1353352832366122
2.48755859375	2.394061514095652e-14	0.0970237000412866
2.53189697265625	6.6563840049803625e-15	0.06779953109924751
2.60882861328125	1.8039458325928044e-15	0.04618039137973471
3.3128115234375	4.765304735299156e-16	0.030659889794007474
3.915142333984375	1.2269868983798635e-16	0.019841094744370243
3.4167021484375	3.079436362031953e-17	0.012515342341223635
1.73664990234375	0.019841094744370298	1.2269868983798635e-16
1.743697021484375	0.03065988979400756	4.765304735299156e-16
2.3558095703125	0.04618039137973475	1.8039458325928044e-15
2.618518310546875	0.06779953109924783	6.65638400498055e-15
2.64977197265625	0.09702370004128709	2.3940615140956863e-14
2.647166015625	0.13533528323661276	8.392943572506018e-14
2.67159228515625	0.1840035919677199	2.867975008888118e-13
2.6844755859375	0.24385048692652475	9.55253160529795e-13
2.696863037109375	0.31499453169676345	3.1012991859194514e-12
2.72811669921875	0.3966107332899651	9.814109704065061e-12
2.7520478515625	0.48675225595997185	3.0271937126909975e-11
2.79673486328125	0.5822822402018134	9.101470764488001e-11
2.82714404296875	0.678955290288568	2.667257870669027e-10
2.8596455078125	0.7716686738745263	7.61904420899172e-10
2.937182861328125	0.8548750167246698	2.1213779139166125e-09
3.0101318359375	0.923116346386636	5.7572840070272345e-09
3.0683076171875	0.9716107671891228	1.522997974471279e-08
3.11875732421875	0.996805114543033	3.9270195107844665e-08
3.12211572265625	0.996805114543033	9.869811391106034e-08
3.103121337890625	0.9716107671891226	2.4178909476747436e-07
3.030594482421875	0.9231163463866356	5.773599123465981e-07
2.879777587890625	0.8548750167246695	1.343812277631526e-06
2.69102734375	0.7716686738745262	3.0486856336898723e-06
2.502607177734375	0.6789552902885677	6.741689478400731e-06
2.338063232421875	0.5822822402018133	1.4531381583631438e-05
2.20190966796875	0.48675225595997157	3.053002293467871e-05
2.136338134765625	0.3966107332899649	6.25215037748206e-05
2.062673095703125	0.31499453169676317	0.00012479976313343807
2.0277677001953127	0.24385048692652442	0.00024281760334162887
2.001138916015625	0.1840035919677199	0.00046049894189605176
1.9496064453125	0.1353352832366127	0.0008512540013105025
1.933493408203125	0.09702370004128698	0.0015338106793244715
1.9119664306640625	0.06779953109924779	0.002693806580421505
1.91326953125	0.04618039137973471	0.004611509662433067
1.827822509765625	0.030659889794007474	0.0076948808183875134
1.78174072265625	0.019841094744370298	0.012515342341223704
1.773885986328125	0.01251534234122367	0.01984109474437035
1.739843017578125	0.007694880818387471	0.030659889794007626
1.720004638671875	0.004611509662433039	0.04618039137973492
1.6713717041015625	0.0026938065804214878	0.06779953109924805
1.634043701171875	0.0015338106793244607	0.09702370004128733
1.60640576171875	0.0008512540013104993	0.13533528323661292
1.5501568603515625	0.00046049894189605014	0.18400359196772018
1.496734130859375	0.00024281760334162714	0.24385048692652514
1.4674259033203125	0.0001247997631334372	0.314994531696764
1.4126085205078125	6.252150377482015e-05	0.39661073328996577
1.365645751953125	3.0530022934678436e-05	0.48675225595997257
1.3172698974609376	1.4531381583631387e-05	0.5822822402018138
1.2769139404296874	6.741689478400708e-06	0.6789552902885686
1.2344473876953126	3.048685633689856e-06	0.7716686738745268
1.2017440185546875	1.343812277631519e-06	0.85487501672467
1.1744730224609374	5.773599123465918e-07	0.9231163463866363
1.1870440673828124	2.4178909476747177e-07	0.9716107671891232
1.1561392822265626	9.86981139110593e-08	0.9968051145430331
1.1512027587890625	3.927019510784397e-08	0.9968051145430329
1.15898388671875	1.522997974471252e-08	0.9716107671891222
1.1111768798828126	5.757284007027132e-09	0.923116346386635
1.0683616943359375	2.1213779139165976e-09	0.8548750167246694
1.028225830078125	7.619044208991666e-10	0.7716686738745258
0.8786571044921875	2.667257870669008e-10	0.6789552902885675
0.7757757568359375	9.101470764487969e-11	0.5822822402018127
0.6945681762695313	3.0271937126909755e-11	0.486752255959971
0.6503948974609375	9.81410970406499e-12	0.3966107332899643
0.6067171630859375	3.1012991859194074e-12	0.3149945316967627
0.5623787231445313	9.552531605297814e-13	0.24385048692652406
0.5263536987304688	2.8679750088880877e-13	0.1840035919677193
0.5067538146972657	8.392943572505899e-14	0.1353352832366122
0.4428154296875	2.394061514095652e-14	0.0970237000412866
0.4558820495605469	6.6563840049803625e-15	0.06779953109924751
0.4673153381347656	1.8039458325928044e-15	0.04618039137973471
1.048963623046875	4.765304735299156e-16	0.030659889794007474
1.7689493408203125	1.2269868983798635e-16	0.019841094744370243
1.5114891357421876	3.079436362031953e-17	0.012515342341223635
-0.1799046630859375	0.019841094744370298	1.2269868983798635e-16
-0.6190130004882812	0.03065988979400756	4.765304735299156e-16
0.04325566482543945	0.04618039137973475	1.8039458325928044e-15
0.3558636474609375	0.06779953109924783	6.65638400498055e-15
0.38324484252929686	0.09702370004128709	2.3940615140956863e-14
0.38038192749023436	0.13533528323661276	8.392943572506018e-14
0.38027182006835936	0.1840035919677199	2.867975008888118e-13
0.37573886108398435	0.24385048692652475	9.55253160529795e-13
0.3840339660644531	0.31499453169676345	3.1012991859194514e-12
0.39484329223632814	0.3966107332899651	9.814109704065061e-12
0.41139678955078124	0.48675225595997185	3.0271937126909975e-11
0.44894500732421877	0.5822822402018134	9.101470764488001e-11
0.4671501770019531	0.678955290288568	2.667257870669027e-10
0.5290147705078125	0.7716686738745263	7.61904420899172e-10
0.5757206420898437	0.8548750167246698	2.1213779139166125e-09
0.6617364501953125	0.923116346386636	5.7572840070272345e-09
0.6993764038085938	0.9716107671891228	1.522997974471279e-08
0.7540653686523437	0.996805114543033	3.9270195107844665e-08
0.7472567749023438	0.996805114543033	9.869811391106034e-08
0.7413840942382812	0.9716107671891226	2.4178909476747436e-07
0.710534423828125	0.9231163463866356	5.773599123465981e-07
0.58203369140625	0.8548750167246695	1.343812277631526e-06
0.40244100952148437	0.7716686738745262	3.0486856336898723e-06
0.22620675659179687	0.6789552902885677	6.741689478400731e-06
0.07671136474609375	0.5822822402018133	1.4531381583631438e-05
-0.05832265853881836	0.48675225595997157	3.053002293467871e-05
-0.11422284698486328	0.3966107332899649	6.25215037748206e-05
-0.16465414428710937	0.31499453169676317	0.00012479976313343807
-0.1875758056640625	0.24385048692652442	0.00024281760334162887
-0.22305021667480468	0.1840035919677199	0.00046049894189605176
-0.2168472442626953	0.1353352832366127	0.0008512540013105025
-0.2783264465332031	0.09702370004128698	0.0015338106793244715
-0.23477714538574218	0.06779953109924779	0.002693806580421505
-0.229565185546875	0.04618039137973471	0.004611509662433067
-0.24393478393554688	0.030659889794007474	0.0076948808183875134
-0.24967897033691405	0.019841094744370298	0.012515342341223704
-0.23708949279785158	0.01251534234122367	0.01984109474437035
-0.28997998046875	0.007694880818387471	0.030659889794007626
-0.2571849365234375	0.004611509662433039	0.04618039137973492
-0.2715178527832031	0.0026938065804214878	0.06779953109924805
-0.31227764892578125	0.0015338106793244607	0.09702370004128733
-0.31363568115234375	0.0008512540013104993	0.13533528323661292
-0.37349993896484374	0.00046049894189605014	0.18400359196772018
-0.32238958740234375	0.00024281760334162714	0.24385048692652514
-0.36680145263671876	0.0001247997631334372	0.314994531696764
-0.3808957824707031	6.252150377482015e-05	0.39661073328996577
-0.4118923034667969	3.0530022934678436e-05	0.48675225595997257
-0.3930264587402344	1.4531381583631387e-05	0.5822822402018138
-0.3357682189941406	6.741689478400708e-06	0.6789552902885686
-0.35740521240234374	3.048685633689856e-06	0.7716686738745268
-0.353000732421875	1.343812277631519e-06	0.85487501672467
-0.3231420288085938	5.773599123465918e-07	0.9231163463866363
-0.29697207641601564	2.4178909476747177e-07	0.9716107671891232
-0.3295835876464844	9.86981139110593e-08	0.9968051145430331
-0.34639401245117185	3.927019510784397e-08	0.9968051145430329
-0.44516448974609374	1.522997974471252e-08	0.9716107671891222
-0.46966439819335937	5.757284007027132e-09	0.923116346386635
-0.5900902099609375	2.1213779139165976e-09	0.8548750167246694
-0.5685633544921875	7.619044208991666e-10	0.7716686738745258
-0.612920166015625	2.667257870669008e-10	0.6789552902885675
-0.576840087890625	9.101470764487969e-11	0.5822822402018127
-0.588732177734375	3.0271937126909755e-11	0.486752255959971
-0.5761610717773438	9.81410970406499e-12	0.3966107332899643
-0.5792625732421876	3.1012991859194074e-12	0.3149945316967627
-0.5461188354492188	9.552531605297814e-13	0.24385048692652406
-0.5291065063476562	2.8679750088880877e-13	0.1840035919677193
-0.045476261138916015	8.392943572505899e-14	0.1353352832366122
0.9436415405273437	2.394061514095652e-14	0.0970237000412866
1.0379891357421875	6.6563840049803625e-15	0.06779953109924751
-0.37915234375	1.8039458325928044e-15	0.04618039137973471
-1.5502852783203125	0.019841094744370298	9.301368016640084e-16
-0.9423201904296875	0.03065988979400756	3.476327411194989e-15
-0.43303378295898437	0.04618039137973475	1.2664165549094176e-14
-0.31326864624023437	0.06779953109924783	4.496913632023328e-14
-0.28623614501953126	0.09702370004128709	1.55644785504638e-13
-0.26518643188476565	0.13533528323661276	5.25093527797419e-13
-0.23797039794921876	0.1840035919677199	1.7267156154687624e-12
-0.17379345703125	0.24385048692652475	5.5346100717010135e-12
-0.13945684814453124	0.31499453169676345	1.7291604867152327e-11
-0.0894843521118164	0.3966107332899651	5.2658154923891826e-11
-0.028959457397460937	0.48675225595997185	1.5630685836019022e-10
0.048963138580322266	0.5822822402018134	4.522436647695059e-10
0.12824378967285155	0.678955290288568	1.2754076295260396e-09
0.19365031433105467	0.7716686738745263	3.505965117042003e-09
0.2959259948730469	0.8548750167246698	9.393949736049535e-09
0.393320068359375	0.923116346386636	2.4534145397154624e-08
0.4553131408691406	0.9716107671891228	6.245622035317746e-08
0.5256930541992187	0.996805114543033	1.5497531357028997e-07
0.5453297119140625	0.996805114543033	3.7482746881752216e-07
0.5187743530273438	0.9716107671891226	8.836542241315613e-07
0.41042413330078126	0.9231163463866356	2.0305578494036836e-06
0.24231982421875	0.8548750167246695	4.548104523682639e-06
0.04121859359741211	0.7716686738745262	9.929504305851047e-06
-0.10864384460449218	0.6789552902885677	2.113035343044194e-05
-0.23936515808105469	0.5822822402018133	4.382965126946305e-05
-0.3209764709472656	0.48675225595997157	8.861583426604922e-05
-0.347164794921875	0.3966107332899649	0.0001746371788397792
-0.38010665893554685	0.31499453169676317	0.00033546262790251185
-0.39166839599609377	0.24385048692652442	0.0006281070149764975
-0.3937421569824219	0.1840035919677199	0.0011463182433300535
-0.40370733642578127	0.1353352832366127	0.002039195319842277
-0.4046065673828125	0.09702370004128698	0.003535855501507573
-0.404551513671875	0.06779953109924779	0.0059760228950059375
-0.3954305725097656	0.04618039137973471	0.009844916976392443
-0.39097100830078124	0.030659889794007474	0.015808618705241848
-0.38561224365234376	0.019841094744370298	0.02474331320515426
-0.3903470764160156	0.01251534234122367	0.03774886009129893
-0.38502496337890624	0.007694880818387471	0.056134762834133684
-0.39080584716796873	0.004611509662433039	0.08136581966452526
-0.3886036376953125	0.0026938065804214878	0.11495667048603504
-0.39313653564453127	0.0015338106793244607	0.15831002262193877
-0.3979080810546875	0.0008512540013104993	0.21250282427502182
-0.4110114135742188	0.00046049894189605014	0.27803730045319386
-0.4117271423339844	0.00024281760334162714	0.35458754856089875
-0.4211417236328125	0.0001247997631334372	0.44078414080532435
-0.4279870300292969	6.252150377482015e-05	0.534085147759517
-0.42850088500976563	3.0530022934678436e-05	0.6307788205474283
-0.3851534423828125	1.4531381583631387e-05	0.7261490370736906
-0.3506883850097656	6.741689478400708e-06	0.8148102621687291
-0.32530755615234375	3.048685633689856e-06	0.8911878885041843
-0.27017816162109376	1.343812277631519e-06	0.9500886338026269
-0.25336773681640623	5.773599123465918e-07	0.9872815715902905
-0.2763444213867188	2.4178909476747177e-07	1.0
-0.24795390319824218	9.86981139110593e-08	0.9872815715902905
-0.3104057312011719	3.927019510784397e-08	0.9500886338026269
-0.4077080383300781	1.522997974471252e-08	0.8911878885041843
-0.4691505432128906	5.757284007027132e-09	0.8148102621687291
-0.4776658935546875	2.1213779139165976e-09	0.7261490370736916
-0.4966235046386719	7.619044208991666e-10	0.6307788205474288
-0.49902761840820314	2.667257870669008e-10	0.5340851477595175
-0.5111032409667968	9.101470764487969e-11	0.4407841408053249
-0.5013583068847656	3.0271937126909755e-11	0.3545875485608993
-0.48909918212890624	9.81410970406499e-12	0.2780373004531943
-0.48456622314453124	3.1012991859194074e-12	0.21250282427502212
-0.47428912353515623	9.552531605297814e-13	0.15831002262193877
-0.11941647338867188	2.8679750088880877e-13	0.11495667048603504
0.719288330078125	8.392943572505899e-14	0.08136581966452526
0.9613511962890625	2.394061514095652e-14	0.056134762834133684
-0.18298780822753907	6.6563840049803625e-15	0.03774886009129893
-1.6365947265625	0.019841094744370298	1.8039458325927787e-15
-0.9879983520507812	0.03065988979400756	6.656384004980456e-15
-0.4067354125976563	0.04618039137973475	2.394061514095669e-14
-0.2813912353515625	0.06779953109924783	8.392943572505959e-14
-0.2541201477050781	0.09702370004128709	2.8679750088880877e-13
-0.22982211303710937	0.13533528323661276	9.552531605297814e-13
-0.20587274169921874	0.1840035919677199	3.1012991859194074e-12
-0.17447247314453124	0.24385048692652475	9.81410970406499e-12
-0.13182241821289062	0.31499453169676345	3.0271937126909755e-11
-0.09001656341552734	0.3966107332899651	9.101470764487904e-11
-0.028115266799926757	0.48675225595997185	2.6672578706689983e-10
0.030097280502319336	0.5822822402018134	7.619044208991611e-10
0.09796297454833984	0.678955290288568	2.1213779139165823e-09
0.17605075073242188	0.7716686738745263	5.757284007027173e-09
0.26768228149414064	0.8548750167246698	1.522997974471263e-08
0.3528539123535156	0.923116346386636	3.9270195107844254e-08
0.44132891845703126	0.9716107671891228	9.869811391105965e-08
0.5048818969726563	0.996805114543033	2.417890947674731e-07
0.5286477661132812	0.996805114543033	5.773599123465918e-07
0.513489013671875	0.9716107671891226	1.343812277631519e-06
0.42398626708984377	0.9231163463866356	3.048685633689856e-06
0.2652781982421875	0.8548750167246695	6.7416894784006825e-06
0.07663795471191406	0.7716686738745262	1.4531381583631333e-05
-0.08708024597167968	0.6789552902885677	3.0530022934678436e-05
-0.21218582153320312	0.5822822402018133	6.252150377482015e-05
-0.29669677734375	0.48675225595997157	0.0001247997631334372
-0.34268692016601565	0.3966107332899649	0.00024281760334162714
-0.3662325439453125	0.31499453169676317	0.00046049894189605014
-0.3698662414550781	0.24385048692652442	0.0008512540013104993
-0.37913400268554687	0.1840035919677199	0.0015338106793244607
-0.38895230102539063	0.1353352832366127	0.0026938065804214878
-0.3819051513671875	0.09702370004128698	0.004611509662433039
-0.3796845703125	0.06779953109924779	0.007694880818387471
-0.37452761840820314	0.04618039137973471	0.01251534234122367
-0.36740704345703123	0.030659889794007474	0.019841094744370298
-0.3536063537597656	0.019841094744370298	0.030659889794007474
-0.3548542785644531	0.01251534234122367	0.04618039137973471
-0.35993777465820315	0.007694880818387471	0.06779953109924779
-0.352468505859375	0.004611509662433039	0.09702370004128698
-0.35048651123046876	0.0026938065804214878	0.1353352832366127
-0.35582696533203123	0.0015338106793244607	0.1840035919677199
-0.36388348388671876	0.0008512540013104993	0.24385048692652442
-0.3726190185546875	0.00046049894189605014	0.31499453169676317
-0.37313287353515623	0.00024281760334162714	0.3966107332899649
-0.3951552734375	0.0001247997631334372	0.48675225595997157
-0.37247222900390625	6.252150377482015e-05	0.5822822402018133
-0.32897796630859377	3.0530022934678436e-05	0.678955290288568
-0.3224630126953125	1.4531381583631387e-05	0.7716686738745258
-0.3000919189453125	6.741689478400708e-06	0.8548750167246694
-0.24967897033691405	3.048685633689856e-06	0.9231163463866356
-0.2755552978515625	1.343812277631519e-06	0.9716107671891226
-0.27344479370117186	5.773599123465918e-07	0.996805114543033
-0.26579205322265625	2.4178909476747177e-07	0.996805114543033
-0.34507269287109377	9.86981139110593e-08	0.9716107671891226
-0.429308349609375	3.927019510784397e-08	0.9231163463866356
-0.5072859802246094	1.522997974471252e-08	0.8548750167246694
-0.5197286376953125	5.757284007027132e-09	0.7716686738745258
-0.5311619873046876	2.1213779139165976e-09	0.6789552902885686
-0.5330889282226563	7.619044208991666e-10	0.5822822402018138
-0.5315841064453125	2.667257870669008e-10	0.48675225595997207
-0.5331806640625	9.101470764487969e-11	0.3966107332899654
-0.5429439697265624	3.0271937126909755e-11	0.31499453169676356
-0.49166845703125	9.81410970406499e-12	0.24385048692652475
-0.47823477172851564	3.1012991859194074e-12	0.1840035919677199
0.001504863977432251	9.552531605297814e-13	0.1353352832366127
0.79884423828125	2.8679750088880877e-13	0.09702370004128698
0.8066621704101562	8.392943572505899e-14	0.06779953109924779
-0.725784912109375	2.394061514095652e-14	0.04618039137973471
-1.5728031005859375	0.019841094744370298	3.476327411194989e-15
-0.80477197265625	0.03065988979400756	1.2664165549094176e-14
-0.4012665100097656	0.04618039137973475	4.496913632023328e-14
-0.3059278564453125	0.06779953109924783	1.5564478550463911e-13
-0.28276763916015624	0.09702370004128709	5.25093527797419e-13
-0.26467257690429685	0.13533528323661276	1.7267156154687624e-12
-0.23013407897949217	0.1840035919677199	5.5346100717010135e-12
-0.20058737182617187	0.24385048692652475	1.7291604867152327e-11
-0.1574051055908203	0.31499453169676345	5.26581549238922e-11
-0.12174716949462891	0.3966107332899651	1.5630685836019022e-10
-0.06012115478515625	0.48675225595997185	4.522436647695059e-10
-0.0009726560115814208	0.5822822402018134	1.2754076295260396e-09
0.08043682098388671	0.678955290288568	3.505965117042003e-09
0.16241520690917968	0.7716686738745263	9.393949736049535e-09
0.2492568817138672	0.8548750167246698	2.4534145397154624e-08
0.34231985473632814	0.923116346386636	6.245622035317746e-08
0.4179668273925781	0.9716107671891228	1.5497531357028997e-07
0.47269247436523437	0.996805114543033	3.748274688175241e-07
0.4935403747558594	0.996805114543033	8.836542241315613e-07
0.44872479248046876	0.9716107671891226	2.0305578494036836e-06
0.3267023010253906	0.9231163463866356	4.548104523682655e-06
0.15111038208007813	0.8548750167246695	9.929504305851047e-06
-0.04303544235229492	0.7716686738745262	2.113035343044194e-05
-0.20297312927246094	0.6789552902885677	4.382965126946305e-05
-0.30741436767578123	0.5822822402018133	8.861583426604922e-05
-0.37896881103515623	0.48675225595997157	0.0001746371788397792
-0.41794845581054685	0.3966107332899649	0.00033546262790251185
-0.438282470703125	0.31499453169676317	0.0006281070149764975
-0.4456049499511719	0.24385048692652442	0.0011463182433300576
-0.45366146850585937	0.1840035919677199	0.002039195319842277
-0.45094537353515624	0.1353352832366127	0.003535855501507573
-0.44496261596679687	0.09702370004128698	0.0059760228950059375
-0.4378970642089844	0.06779953109924779	0.009844916976392443
-0.43257501220703126	0.04618039137973471	0.015808618705241848
-0.4231053771972656	0.030659889794007474	0.024743313205154317
-0.41804022216796877	0.019841094744370298	0.03774886009129893
-0.4140394897460937	0.01251534234122367	0.056134762834133684
-0.40813015747070314	0.007694880818387471	0.08136581966452526
-0.40772637939453127	0.004611509662433039	0.11495667048603504
-0.40620318603515626	0.0026938065804214878	0.15831002262193877
-0.40684548950195315	0.0015338106793244607	0.21250282427502212
-0.4106443786621094	0.0008512540013104993	0.27803730045319386
-0.41367245483398435	0.00046049894189605014	0.35458754856089875
-0.42728964233398437	0.00024281760334162714	0.44078414080532435
-0.42739971923828124	0.0001247997631334372	0.534085147759517
-0.42690423583984377	6.252150377482015e-05	0.6307788205474283
-0.38273095703125	3.0530022934678436e-05	0.7261490370736912
-0.3502112121582031	1.4531381583631387e-05	0.8148102621687291
-0.33202438354492186	6.741689478400708e-06	0.8911878885041843
-0.28084066772460936	3.048685633689856e-06	0.9500886338026269
-0.2625437316894531	1.343812277631519e-06	0.9872815715902905
-0.29131964111328124	5.773599123465918e-07	1.0
-0.26250701904296875	2.4178909476747177e-07	0.9872815715902905
-0.31328701782226565	9.86981139110593e-08	0.9500886338026269
-0.4076713562011719	3.927019510784397e-08	0.8911878885041843
-0.487998046875	1.522997974471252e-08	0.8148102621687291
-0.509726806640625	5.757284007027132e-09	0.7261490370736906
-0.516315185546875	2.1213779139165976e-09	0.6307788205474288
-0.520738037109375	7.619044208991666e-10	0.5340851477595175
-0.5154710083007813	2.667257870669008e-10	0.4407841408053249
-0.5059462890625	9.101470764487969e-11	0.3545875485608993
-0.5112500610351562	3.0271937126909755e-11	0.2780373004531943
-0.5054140930175781	9.81410970406499e-12	0.21250282427502212
-0.4733898620605469	3.1012991859194074e-12	0.15831002262193877
-0.14991749572753907	9.552531605297814e-13	0.11495667048603504
0.6538818359375	2.8679750088880877e-13	0.08136581966452526
0.9193067626953125	8.392943572505899e-14	0.056134762834133684
-0.14514596557617188	2.394061514095652e-14	0.03774886009129893
-1.6243172607421874	0.019841094744370298	3.476327411194989e-15
-0.9327037353515625	0.03065988979400756	1.2664165549094176e-14
-0.3773538208007812	0.04618039137973475	4.496913632023328e-14
-0.2422647705078125	0.06779953109924783	1.5564478550463911e-13
-0.22723446655273438	0.09702370004128709	5.25093527797419e-13
-0.2025877380371094	0.13533528323661276	1.7267156154687624e-12
-0.16480096435546876	0.1840035919677199	5.5346100717010135e-12
-0.13084976196289064	0.24385048692652475	1.7291604867152327e-11
-0.09056712341308594	0.31499453169676345	5.26581549238922e-11
-0.04105342483520508	0.3966107332899651	1.5630685836019022e-10
0.012038911819458008	0.48675225595997185	4.522436647695059e-10
0.07250875091552735	0.5822822402018134	1.2754076295260396e-09
0.14997254943847657	0.678955290288568	3.505965117042003e-09
0.23540110778808593	0.7716686738745263	9.393949736049535e-09
0.3234906921386719	0.8548750167246698	2.4534145397154624e-08
0.4245001220703125	0.923116346386636	6.245622035317746e-08
0.5139293823242187	0.9716107671891228	1.5497531357028997e-07
0.5748213500976562	0.996805114543033	3.748274688175241e-07
0.6163336181640625	0.996805114543033	8.836542241315613e-07
0.5989175415039063	0.9716107671891226	2.0305578494036836e-06
0.504735107421875	0.9231163463866356	4.548104523682655e-06
0.34516445922851563	0.8548750167246695	9.929504305851047e-06
0.16401182556152344	0.7716686738745262	2.113035343044194e-05
0.002587631940841675	0.6789552902885677	4.382965126946305e-05
-0.12488536834716797	0.5822822402018133	8.861583426604922e-05
-0.19719224548339845	0.48675225595997157	0.0001746371788397792
-0.2396037139892578	0.3966107332899649	0.00033546262790251185
-0.25590028381347657	0.31499453169676317	0.0006281070149764975
-0.2595706787109375	0.24385048692652442	0.0011463182433300576
-0.27500473022460936	0.1840035919677199	0.002039195319842277
-0.2564875793457031	0.1353352832366127	0.003535855501507573
-0.25872650146484377	0.09702370004128698	0.0059760228950059375
-0.2509269104003906	0.06779953109924779	0.009844916976392443
-0.2398239440917969	0.04618039137973471	0.015808618705241848
-0.22607829284667968	0.030659889794007474	0.024743313205154317
-0.21842550659179688	0.019841094744370298	0.03774886009129893
-0.20165177917480467	0.01251534234122367	0.056134762834133684
-0.20000010681152344	0.007694880818387471	0.08136581966452526
-0.19605441284179687	0.004611509662433039	0.11495667048603504
-0.19311810302734375	0.0026938065804214878	0.15831002262193877
-0.18841998291015624	0.0015338106793244607	0.21250282427502212
-0.1886769104003906	0.0008512540013104993	0.27803730045319386
-0.19113609313964844	0.00046049894189605014	0.35458754856089875
-0.19196192932128905	0.00024281760334162714	0.44078414080532435
-0.2001469268798828	0.0001247997631334372	0.534085147759517
-0.19482484436035155	6.252150377482015e-05	0.6307788205474283
-0.20251432800292968	3.0530022934678436e-05	0.7261490370736912
-0.19743083190917968	1.4531381583631387e-05	0.8148102621687291
-0.20236752319335938	6.741689478400708e-06	0.8911878885041843
-0.16759046936035157	3.048685633689856e-06	0.9500886338026269
-0.12404118347167968	1.343812277631519e-06	0.9872815715902905
-0.09075064849853516	5.773599123465918e-07	1.0
-0.05090845108032226	2.4178909476747177e-07	0.9872815715902905
0.006661776065826416	9.86981139110593e-08	0.9500886338026269
-0.020242256164550783	3.927019510784397e-08	0.8911878885041843
-0.0035969922542572023	1.522997974471252e-08	0.8148102621687291
-0.024389808654785156	5.757284007027132e-09	0.7261490370736906
-0.11789324951171876	2.1213779139165976e-09	0.6307788205474288
-0.19754093933105468	7.619044208991666e-10	0.5340851477595175
-0.22290339660644531	2.667257870669008e-10	0.4407841408053249
-0.23237303161621095	9.101470764487969e-11	0.3545875485608993
-0.22888615417480468	3.0271937126909755e-11	0.2780373004531943
-0.2270142364501953	9.81410970406499e-12	0.21250282427502212
-0.22354571533203124	3.1012991859194074e-12	0.15831002262193877
-0.22204086303710938	9.552531605297814e-13	0.11495667048603504
-0.21844386291503906	2.8679750088880877e-13	0.08136581966452526
-0.16566351318359376	8.392943572505899e-14	0.056134762834133684
-0.10495509338378907	2.394061514095652e-14	0.03774886009129893
0.593687255859375	6.6563840049803625e-15	0.02474331320515426
1.155735595703125	1.8039458325928044e-15	0.015808618705241893
0.8043865966796875	4.765304735299156e-16	0.009844916976392469
-0.880033447265625	0.019841094744370298	4.765304735299156e-16
-0.8958345947265625	0.03065988979400756	1.8039458325928044e-15
-0.20297312927246094	0.04618039137973475	6.65638400498055e-15
0.04758673858642578	0.06779953109924783	2.3940615140957033e-14
0.09409070587158203	0.09702370004128709	8.392943572506018e-14
0.12231607818603515	0.13533528323661276	2.867975008888118e-13
0.15074333190917968	0.1840035919677199	9.55253160529795e-13
0.19647653198242188	0.24385048692652475	3.1012991859194514e-12
0.23453857421875	0.31499453169676345	9.814109704065133e-12
0.2759223327636719	0.3966107332899651	3.0271937126909975e-11
0.323380615234375	0.48675225595997185	9.101470764488001e-11
0.383153076171875	0.5822822402018134	2.667257870669027e-10
0.46951760864257813	0.678955290288568	7.61904420899172e-10
0.5408151245117188	0.7716686738745263	2.1213779139166125e-09
0.6296021118164062	0.8548750167246698	5.7572840070272345e-09
0.7395489501953125	0.923116346386636	1.522997974471279e-08
0.8248489990234374	0.9716107671891228	3.9270195107844665e-08
0.8993397827148437	0.996805114543033	9.869811391106071e-08
0.9484864501953125	0.996805114543033	2.4178909476747436e-07
0.9682332153320312	0.9716107671891226	5.773599123465981e-07
0.9183157958984375	0.9231163463866356	1.3438122776315312e-06
0.78133642578125	0.8548750167246695	3.0486856336898723e-06
0.6106444702148438	0.7716686738745262	6.741689478400731e-06
0.4362637634277344	0.6789552902885677	1.4531381583631438e-05
0.3037256164550781	0.5822822402018133	3.053002293467871e-05
0.20963490295410156	0.48675225595997157	6.25215037748206e-05
0.15026617431640624	0.3966107332899649	0.00012479976313343807
0.1313452606201172	0.31499453169676317	0.00024281760334162887
0.11763632202148437	0.24385048692652442	0.000460498941896053
0.11060750579833985	0.1840035919677199	0.0008512540013105025
0.11594794464111328	0.1353352832366127	0.0015338106793244715
0.11948987579345703	0.09702370004128698	0.002693806580421505
0.13066624450683595	0.06779953109924779	0.004611509662433067
0.14118194580078125	0.04618039137973471	0.0076948808183875134
0.14914671325683593	0.030659889794007474	0.012515342341223737
0.1642687530517578	0.019841094744370298	0.01984109474437035
0.17375674438476563	0.01251534234122367	0.030659889794007626
0.18230877685546876	0.007694880818387471	0.04618039137973492
0.18419903564453124	0.004611509662433039	0.06779953109924805
0.18741064453125	0.0026938065804214878	0.09702370004128733
0.186988525390625	0.0015338106793244607	0.13533528323661317
0.19199864196777344	0.0008512540013104993	0.18400359196772018
0.19583419799804688	0.00046049894189605014	0.24385048692652514
0.18175820922851563	0.00024281760334162714	0.314994531696764
0.18843833923339845	0.0001247997631334372	0.39661073328996577
0.18588742065429686	6.252150377482015e-05	0.48675225595997257
0.1760140380859375	3.0530022934678436e-05	0.5822822402018144
0.1623785095214844	1.4531381583631387e-05	0.6789552902885686
0.17735374450683594	6.741689478400708e-06	0.7716686738745268
0.1699945831298828	3.048685633689856e-06	0.85487501672467
0.16951742553710938	1.343812277631519e-06	0.9231163463866363
0.18052862548828125	5.773599123465918e-07	0.9716107671891232
0.1804735870361328	2.4178909476747177e-07	0.9968051145430331
0.21301167297363283	9.86981139110593e-08	0.9968051145430329
0.2698661804199219	3.927019510784397e-08	0.9716107671891222
0.28069384765625	1.522997974471252e-08	0.923116346386635
0.31928811645507815	5.757284007027132e-09	0.8548750167246684
0.3851351013183594	2.1213779139165976e-09	0.7716686738745258
0.3555333251953125	7.619044208991666e-10	0.6789552902885675
0.3661774597167969	2.667257870669008e-10	0.5822822402018127
0.3599928588867187	9.101470764487969e-11	0.486752255959971
0.2672051086425781	3.0271937126909755e-11	0.3966107332899643
0.19214544677734374	9.81410970406499e-12	0.3149945316967627
0.15613882446289062	3.1012991859194074e-12	0.24385048692652406
0.1545054931640625	9.552531605297814e-13	0.1840035919677193
0.15700137329101563	2.8679750088880877e-13	0.1353352832366122
0.16430545043945313	8.392943572505899e-14	0.0970237000412866
0.16184629821777344	2.394061514095652e-14	0.06779953109924751
0.16608560180664061	6.6563840049803625e-15	0.0461803913797345
0.16885675048828125	1.8039458325928044e-15	0.030659889794007474
0.2160397491455078	4.765304735299156e-16	0.019841094744370243
0.2236558380126953	1.2269868983798635e-16	0.012515342341223635
0.685465576171875	3.079436362031953e-17	0.007694880818387451
1.4816671142578124	7.533288557462739e-18	0.004611509662433027
1.5021846923828126	1.796304814270403e-18	0.0026938065804214782
0.03540100860595703	4.175010055850544e-19	0.0015338106793244565
-0.7414208374023438	0.019841094744370298	1.5279799682872937e-17
0.012350895881652831	0.03065988979400756	6.16659351490994e-17
0.3971923522949219	0.04618039137973475	2.4258002935511285e-16
0.47663818359375	0.06779953109924783	9.301368016640084e-16
0.4998351135253906	0.09702370004128709	3.476327411194989e-15
0.5322630615234375	0.13533528323661276	1.2664165549094176e-14
0.563865234375	0.1840035919677199	4.4969136320232955e-14
0.6071392822265625	0.24385048692652475	1.55644785504638e-13
0.6417694702148438	0.31499453169676345	5.25093527797419e-13
0.6840341186523438	0.3966107332899651	1.72671561546875e-12
0.7448709716796875	0.48675225595997185	5.534610071700974e-12
0.8170861206054687	0.5822822402018134	1.7291604867152204e-11
0.8906226196289062	0.678955290288568	5.2658154923891826e-11
0.96949951171875	0.7716686738745263	1.5630685836019022e-10
1.06371875	0.8548750167246698	4.522436647695059e-10
1.1617366943359375	0.923116346386636	1.2754076295260396e-09
1.241641357421875	0.9716107671891228	3.505965117042003e-09
1.2967523193359376	0.996805114543033	9.393949736049535e-09
1.3221514892578126	0.996805114543033	2.4534145397154446e-08
1.294513427734375	0.9716107671891226	6.245622035317723e-08
1.1894114990234375	0.9231163463866356	1.5497531357028912e-07
1.0249041748046874	0.8548750167246695	3.7482746881752084e-07
0.8568182373046875	0.7716686738745262	8.836542241315566e-07
0.7166089477539063	0.6789552902885677	2.0305578494036726e-06
0.6057811889648438	0.5822822402018133	4.548104523682639e-06
0.5351627197265625	0.48675225595997157	9.929504305851047e-06
0.5073777770996094	0.3966107332899649	2.113035343044194e-05
0.48786956787109376	0.31499453169676317	4.382965126946305e-05
0.46927902221679685	0.24385048692652442	8.861583426604922e-05
0.48680517578125	0.1840035919677199	0.00017463717883977855
0.4864748229980469	0.1353352832366127	0.0003354626279025107
0.48153814697265623	0.09702370004128698	0.0006281070149764959
0.49605459594726564	0.06779953109924779	0.0011463182433300535
0.5081485595703125	0.04618039137973471	0.002039195319842277
0.5178017578125	0.030659889794007474	0.003535855501507573
0.5191597900390625	0.019841094744370298	0.005976022895005923
0.5342451171875	0.01251534234122367	0.009844916976392417
0.5464859008789062	0.007694880818387471	0.015808618705241806
0.55033984375	0.004611509662433039	0.02474331320515426
0.5530375366210938	0.0026938065804214878	0.03774886009129893
0.5474218139648438	0.0015338106793244607	0.056134762834133684
0.54472412109375	0.0008512540013104993	0.0813658196645251
0.5504315185546875	0.00046049894189605014	0.11495667048603483
0.5411087036132812	0.00024281760334162714	0.15831002262193852
0.5384293823242188	0.0001247997631334372	0.21250282427502182
0.5407600708007813	6.252150377482015e-05	0.27803730045319386
0.5298038940429688	3.0530022934678436e-05	0.35458754856089875
0.5210316772460938	1.4531381583631387e-05	0.4407841408053239
0.520829833984375	6.741689478400708e-06	0.5340851477595165
0.5219859008789063	3.048685633689856e-06	0.6307788205474278
0.517177734375	1.343812277631519e-06	0.7261490370736906
0.5225364990234375	5.773599123465918e-07	0.8148102621687291
0.5233990478515625	2.4178909476747177e-07	0.8911878885041843
0.5242249145507812	9.86981139110593e-08	0.9500886338026269
0.5427604370117187	3.927019510784397e-08	0.9872815715902905
0.595448974609375	1.522997974471252e-08	1.0
0.6237294311523438	5.757284007027132e-09	0.9872815715902905
0.649789306640625	2.1213779139165976e-09	0.9500886338026274
0.6934854125976563	7.619044208991666e-10	0.8911878885041852
0.7182422485351563	2.667257870669008e-10	0.8148102621687301
0.7050654907226562	9.101470764487969e-11	0.7261490370736916
0.7105711059570312	3.0271937126909755e-11	0.6307788205474288
0.6126448364257813	9.81410970406499e-12	0.5340851477595175
0.5510555419921875	3.1012991859194074e-12	0.4407841408053249
0.49699050903320313	9.552531605297814e-13	0.3545875485608993
0.4903654479980469	2.8679750088880877e-13	0.2780373004531943
0.48451116943359374	8.392943572505899e-14	0.21250282427502212
0.48590591430664065	2.394061514095652e-14	0.15831002262193877
0.4922006530761719	6.6563840049803625e-15	0.11495667048603504
0.49629318237304687	1.8039458325928044e-15	0.08136581966452558
0.4934853210449219	4.765304735299156e-16	0.0561347628341339
0.49330178833007815	1.2269868983798635e-16	0.037748860091299116
0.516847412109375	3.079436362031953e-17	0.024743313205154382
0.7849150390625	7.533288557462739e-18	0.015808618705241893
1.599927490234375	1.796304814270403e-18	0.009844916976392469
1.92833642578125	4.175010055850544e-19	0.005976022895005958
0.9998353271484375	9.458386988221946e-20	0.0035358555015075816
-0.5173428955078125	0.019841094744370298	7.533288557462739e-18
0.053312564849853514	0.03065988979400756	3.079436362031953e-17
0.6245369262695313	0.04618039137973475	1.2269868983798635e-16
0.7695360717773437	0.06779953109924783	4.765304735299156e-16
0.77408740234375	0.09702370004128709	1.8039458325928044e-15
0.814296630859375	0.13533528323661276	6.65638400498055e-15
0.8414759521484375	0.1840035919677199	2.3940615140956863e-14
0.8622320556640625	0.24385048692652475	8.392943572506018e-14
0.8975596313476563	0.31499453169676345	2.867975008888118e-13
0.9575523681640625	0.3966107332899651	9.552531605297883e-13
1.0117457885742187	0.48675225595997185	3.101299185919429e-12
1.056965087890625	0.5822822402018134	9.814109704065061e-12
1.128703125	0.678955290288568	3.0271937126909975e-11
1.207066162109375	0.7716686738745263	9.101470764488001e-11
1.29223779296875	0.8548750167246698	2.667257870669027e-10
1.382052490234375	0.923116346386636	7.61904420899172e-10
1.461002685546875	0.9716107671891228	2.1213779139166125e-09
1.5385400390625	0.996805114543033	5.7572840070272345e-09
1.5737391357421875	0.996805114543033	1.5229979744712682e-08
1.5652972412109376	0.9716107671891226	3.927019510784439e-08
1.492880126953125	0.9231163463866356	9.869811391106034e-08
1.3506337890625	0.8548750167246695	2.417890947674731e-07
1.1821624755859375	0.7716686738745262	5.773599123465949e-07
1.0102776489257812	0.6789552902885677	1.343812277631526e-06
0.8853555908203125	0.5822822402018133	3.0486856336898723e-06
0.7911914672851562	0.48675225595997157	6.741689478400731e-06
0.7551481323242187	0.3966107332899649	1.4531381583631438e-05
0.7209583129882813	0.31499453169676317	3.053002293467871e-05
0.7169943237304688	0.24385048692652442	6.25215037748206e-05
0.708056884765625	0.1840035919677199	0.00012479976313343764
0.7127733764648437	0.1353352832366127	0.00024281760334162798
0.7077449340820312	0.09702370004128698	0.00046049894189605176
0.71537939453125	0.06779953109924779	0.0008512540013105025
0.7247755126953125	0.04618039137973471	0.0015338106793244715
0.7289782104492187	0.030659889794007474	0.002693806580421505
0.739493896484375	0.019841094744370298	0.004611509662433051
0.7346672973632813	0.01251534234122367	0.007694880818387493
0.7447058715820313	0.007694880818387471	0.012515342341223704
0.749569091796875	0.004611509662433039	0.01984109474437035
0.7489267578125	0.0026938065804214878	0.030659889794007626
0.7452747802734375	0.0015338106793244607	0.04618039137973492
0.7431275634765625	0.0008512540013104993	0.06779953109924793
0.7389249267578125	0.00046049894189605014	0.09702370004128717
0.7333826293945312	0.00024281760334162714	0.13533528323661292
0.72350927734375	0.0001247997631334372	0.18400359196772018
0.7282257690429688	6.252150377482015e-05	0.24385048692652514
0.7164437255859375	3.0530022934678436e-05	0.314994531696764
0.7011749267578125	1.4531381583631387e-05	0.3966107332899654
0.7072493896484375	6.741689478400708e-06	0.48675225595997207
0.6984404907226562	3.048685633689856e-06	0.5822822402018138
0.6951004028320312	1.343812277631519e-06	0.6789552902885686
0.7012116088867187	5.773599123465918e-07	0.7716686738745268
0.6942378540039063	2.4178909476747177e-07	0.85487501672467
0.6956142578125	9.86981139110593e-08	0.9231163463866363
0.7161134033203125	3.927019510784397e-08	0.9716107671891232
0.7355848999023438	1.522997974471252e-08	0.9968051145430331
0.781886962890625	5.757284007027132e-09	0.9968051145430329
0.8042213745117187	2.1213779139165976e-09	0.9716107671891226
0.8351812133789063	7.619044208991666e-10	0.9231163463866356
0.8732615966796875	2.667257870669008e-10	0.8548750167246694
0.8723990478515625	9.101470764487969e-11	0.7716686738745258
0.8810612182617188	3.0271937126909755e-11	0.6789552902885675
0.801982421875	9.81410970406499e-12	0.5822822402018127
0.7523402709960938	3.1012991859194074e-12	0.486752255959971
0.6765465087890625	9.552531605297814e-13	0.3966107332899643
0.6493671875	2.8679750088880877e-13	0.3149945316967627
0.6490001831054687	8.392943572505899e-14	0.24385048692652406
0.6345755004882813	2.394061514095652e-14	0.1840035919677193
0.6491837158203125	6.6563840049803625e-15	0.1353352832366122
0.6501563720703125	1.8039458325928044e-15	0.09702370004128698
0.6496975708007813	4.765304735299156e-16	0.06779953109924779
0.6390166625976562	1.2269868983798635e-16	0.04618039137973471
0.6971190795898438	3.079436362031953e-17	0.030659889794007474
0.6942378540039063	7.533288557462739e-18	0.019841094744370243
1.2633333740234376	1.796304814270403e-18	0.012515342341223635
1.98361279296875	4.175010055850544e-19	0.007694880818387451
1.849441162109375	9.458386988221946e-20	0.004611509662433027
0.23991571044921875	2.0886164474088106e-20	0.0026938065804214782
-0.18353836059570314	0.019841094744370298	3.6903882668765605e-18
0.5535147094726562	0.03065988979400756	1.5279799682872937e-17
0.8698297729492187	0.04618039137973475	6.16659351490994e-17
0.9202794189453125	0.06779953109924783	2.4258002935511285e-16
0.9498628540039062	0.09702370004128709	9.301368016640084e-16
0.9765466918945312	0.13533528323661276	3.476327411194989e-15
0.9986241455078125	0.1840035919677199	1.2664165549094176e-14
1.042026611328125	0.24385048692652475	4.4969136320232955e-14
1.0691875	0.31499453169676345	1.55644785504638e-13
1.11690283203125	0.3966107332899651	5.250935277974171e-13
1.1808594970703126	0.48675225595997185	1.72671561546875e-12
1.2425589599609375	0.5822822402018134	5.534610071700974e-12
1.3111219482421874	0.678955290288568	1.7291604867152204e-11
1.3830802001953124	0.7716686738745263	5.2658154923891826e-11
1.4845850830078124	0.8548750167246698	1.5630685836019022e-10
1.5711331787109375	0.923116346386636	4.522436647695059e-10
1.6440089111328124	0.9716107671891228	1.2754076295260396e-09
1.6886409912109375	0.996805114543033	3.505965117042003e-09
1.7120948486328125	0.996805114543033	9.39394973604947e-09
1.667205810546875	0.9716107671891226	2.4534145397154446e-08
1.5630216064453124	0.9231163463866356	6.245622035317723e-08
1.3986793212890625	0.8548750167246695	1.549753135702883e-07
1.2229222412109375	0.7716686738745262	3.7482746881752084e-07
1.06905908203125	0.6789552902885677	8.836542241315566e-07
0.9576991577148437	0.5822822402018133	2.0305578494036726e-06
0.9044600219726563	0.48675225595997157	4.548104523682639e-06
0.87135302734375	0.3966107332899649	9.929504305851047e-06
0.8496058959960937	0.31499453169676317	2.113035343044194e-05
0.8365392456054688	0.24385048692652442	4.382965126946305e-05
0.8330156860351563	0.1840035919677199	8.861583426604892e-05
0.8303546142578125	0.1353352832366127	0.00017463717883977855
0.8291433715820312	0.09702370004128698	0.0003354626279025107
0.8357684936523437	0.06779953109924779	0.0006281070149764959
0.8436231079101563	0.04618039137973471	0.0011463182433300535
0.8572770385742188	0.030659889794007474	0.002039195319842277
0.8672421875	0.019841094744370298	0.00353585550150756
0.8693342895507813	0.01251534234122367	0.005976022895005923
0.8758492431640625	0.007694880818387471	0.009844916976392417
0.8714630737304687	0.004611509662433039	0.015808618705241806
0.8717750854492188	0.0026938065804214878	0.02474331320515426
0.8693893432617188	0.0015338106793244607	0.03774886009129893
0.8647645874023437	0.0008512540013104993	0.05613476283413355
0.8633331909179688	0.00046049894189605014	0.0813658196645251
0.8536799926757812	0.00024281760334162714	0.11495667048603483
0.8407601928710937	0.0001247997631334372	0.15831002262193852
0.8369429931640625	6.252150377482015e-05	0.21250282427502182
0.8345388793945312	3.0530022934678436e-05	0.27803730045319386
0.8223164672851563	1.4531381583631387e-05	0.3545875485608983
0.8142782592773438	6.741689478400708e-06	0.4407841408053239
0.8197838745117187	3.048685633689856e-06	0.5340851477595165
0.8212520751953125	1.343812277631519e-06	0.6307788205474278
0.8162235717773437	5.773599123465918e-07	0.7261490370736906
0.8187194213867187	2.4178909476747177e-07	0.8148102621687291
0.8159850463867188	9.86981139110593e-08	0.8911878885041843
0.8349609375	3.927019510784397e-08	0.9500886338026269
0.86790283203125	1.522997974471252e-08	0.9872815715902905
0.91211279296875	5.757284007027132e-09	1.0
0.9328505249023438	2.1213779139165976e-09	0.9872815715902907
0.9784002075195313	7.619044208991666e-10	0.9500886338026274
1.0080936889648437	2.667257870669008e-10	0.8911878885041852
0.9948619384765625	9.101470764487969e-11	0.8148102621687301
0.9864383544921875	3.0271937126909755e-11	0.7261490370736916
0.8817952880859375	9.81410970406499e-12	0.6307788205474288
0.8244452514648437	3.1012991859194074e-12	0.5340851477595175
0.7672787475585937	9.552531605297814e-13	0.4407841408053249
0.7589837036132813	2.8679750088880877e-13	0.3545875485608993
0.7593323974609375	8.392943572505899e-14	0.2780373004531943
0.75401025390625	2.394061514095652e-14	0.21250282427502212
0.7582312622070313	6.6563840049803625e-15	0.15831002262193877
0.7586900634765625	1.8039458325928044e-15	0.11495667048603549
0.7658656616210937	4.765304735299156e-16	0.08136581966452558
0.7524136962890625	1.2269868983798635e-16	0.0561347628341339
0.7739589233398437	3.079436362031953e-17	0.037748860091299116
1.0223899536132812	7.533288557462739e-18	0.024743313205154382
1.835658935546875	1.796304814270403e-18	0.015808618705241893
2.206057373046875	4.175010055850544e-19	0.009844916976392469
1.2836123046875	9.458386988221946e-20	0.005976022895005958
-0.2510920715332031	0.019841094744370298	7.533288557462739e-18
0.29407247924804686	0.03065988979400756	3.079436362031953e-17
0.8789507446289062	0.04618039137973475	1.2269868983798635e-16
1.032960693359375	0.06779953109924783	4.765304735299156e-16
1.0549647216796876	0.09702370004128709	1.8039458325928044e-15
1.0753355712890624	0.13533528323661276	6.65638400498055e-15
1.11398486328125	0.1840035919677199	2.3940615140956863e-14
1.136190673828125	0.24385048692652475	8.392943572506018e-14
1.1832635498046875	0.31499453169676345	2.867975008888118e-13
1.223949951171875	0.3966107332899651	9.552531605297883e-13
1.269628173828125	0.48675225595997185	3.101299185919429e-12
1.3215643310546874	0.5822822402018134	9.814109704065061e-12
1.385502685546875	0.678955290288568	3.0271937126909975e-11
1.4588740234375	0.7716686738745263	9.101470764488001e-11
1.5484134521484374	0.8548750167246698	2.667257870669027e-10
1.644137451171875	0.923116346386636	7.61904420899172e-10
1.723803466796875	0.9716107671891228	2.1213779139166125e-09
1.788604248046875	0.996805114543033	5.7572840070272345e-09
1.827822509765625	0.996805114543033	1.5229979744712682e-08
1.8231795654296874	0.9716107671891226	3.927019510784439e-08
1.7537171630859374	0.9231163463866356	9.869811391106034e-08
1.617692138671875	0.8548750167246695	2.417890947674731e-07
1.4414212646484375	0.7716686738745262	5.773599123465949e-07
1.2653154296875	0.6789552902885677	1.343812277631526e-06
1.1501566162109376	0.5822822402018133	3.0486856336898723e-06
1.0563228759765626	0.48675225595997157	6.741689478400731e-06
1.0015054321289063	0.3966107332899649	1.4531381583631438e-05
0.9788223266601562	0.31499453169676317	3.053002293467871e-05
0.9641406860351562	0.24385048692652442	6.25215037748206e-05
0.9565613403320312	0.1840035919677199	0.00012479976313343764
0.9530010375976562	0.1353352832366127	0.00024281760334162798
0.956304443359375	0.09702370004128698	0.00046049894189605176
0.9639571533203125	0.06779953109924779	0.0008512540013105025
0.9699766235351562	0.04618039137973471	0.0015338106793244715
0.9777762451171875	0.030659889794007474	0.002693806580421505
0.9797215576171875	0.019841094744370298	0.004611509662433051
0.9966604614257812	0.01251534234122367	0.007694880818387493
0.9878147583007812	0.007694880818387471	0.012515342341223704
0.9919073486328125	0.004611509662433039	0.01984109474437035
0.9990462646484375	0.0026938065804214878	0.030659889794007626
0.9985139770507813	0.0015338106793244607	0.04618039137973492
0.9966970825195313	0.0008512540013104993	0.06779953109924793
0.98983349609375	0.00046049894189605014	0.09702370004128717
0.9791526489257812	0.00024281760334162714	0.13533528323661292
0.9803822021484375	0.0001247997631334372	0.18400359196772018
0.9707474365234375	6.252150377482015e-05	0.24385048692652514
0.952946044921875	3.0530022934678436e-05	0.314994531696764
0.9570017700195312	1.4531381583631387e-05	0.3966107332899654
0.9551115112304688	6.741689478400708e-06	0.48675225595997207
0.9451096801757812	3.048685633689856e-06	0.5822822402018138
0.944100341796875	1.343812277631519e-06	0.6789552902885686
0.9424119262695313	5.773599123465918e-07	0.7716686738745268
0.945935546875	2.4178909476747177e-07	0.85487501672467
0.934814208984375	9.86981139110593e-08	0.9231163463866363
0.9606171264648438	3.927019510784397e-08	0.9716107671891232
0.9926781005859375	1.522997974471252e-08	0.9968051145430331
1.0302630615234376	5.757284007027132e-09	0.9968051145430329
1.065847412109375	2.1213779139165976e-09	0.9716107671891226
1.1086627197265626	7.619044208991666e-10	0.9231163463866356
1.1352364501953125	2.667257870669008e-10	0.8548750167246694
1.12723486328125	9.101470764487969e-11	0.7716686738745258
1.1154896240234375	3.0271937126909755e-11	0.6789552902885675
1.013048828125	9.81410970406499e-12	0.5822822402018127
0.9580478515625	3.1012991859194074e-12	0.486752255959971
0.8990645141601562	9.552531605297814e-13	0.3966107332899643
0.8934854736328125	2.8679750088880877e-13	0.3149945316967627
0.89504541015625	8.392943572505899e-14	0.24385048692652406
0.891797119140625	2.394061514095652e-14	0.1840035919677193
0.89221923828125	6.6563840049803625e-15	0.1353352832366122
0.8913933715820312	1.8039458325928044e-15	0.09702370004128698
0.8998536376953125	4.765304735299156e-16	0.06779953109924779
0.8963851318359375	1.2269868983798635e-16	0.04618039137973471
0.9135626220703125	3.079436362031953e-17	0.030659889794007474
1.2164072265625	7.533288557462739e-18	0.019841094744370243
2.0292908935546876	1.796304814270403e-18	0.012515342341223635
2.35507568359375	4.175010055850544e-19	0.007694880818387451
1.32468408203125	9.458386988221946e-20	0.004611509662433027
-0.15857963562011718	0.019841094744370298	7.533288557462739e-18
0.45575360107421875	0.03065988979400756	3.079436362031953e-17
1.037511962890625	0.04618039137973475	1.2269868983798635e-16
1.1788958740234374	0.06779953109924783	4.765304735299156e-16
1.196715576171875	0.09702370004128709	1.8039458325928044e-15
1.220903564453125	0.13533528323661276	6.65638400498055e-15
1.248982177734375	0.1840035919677199	2.3940615140956863e-14
1.2813734130859376	0.24385048692652475	8.392943572506018e-14
1.314205078125	0.31499453169676345	2.867975008888118e-13
1.3501199951171876	0.3966107332899651	9.552531605297883e-13
1.4058917236328126	0.48675225595997185	3.101299185919429e-12
1.45417578125	0.5822822402018134	9.814109704065061e-12
1.5278775634765625	0.678955290288568	3.0271937126909975e-11
1.606901123046875	0.7716686738745263	9.101470764488001e-11
1.6843099365234375	0.8548750167246698	2.667257870669027e-10
1.7781070556640626	0.923116346386636	7.61904420899172e-10
1.8626546630859375	0.9716107671891228	2.1213779139166125e-09
1.924849609375	0.996805114543033	5.7572840070272345e-09
1.9695733642578126	0.996805114543033	1.5229979744712682e-08
1.9506158447265625	0.9716107671891226	3.927019510784439e-08
1.8877418212890624	0.9231163463866356	9.869811391106034e-08
1.74287109375	0.8548750167246695	2.417890947674731e-07
1.5650953369140626	0.7716686738745262	5.773599123465949e-07
1.3957613525390624	0.6789552902885677	1.343812277631526e-06
1.277427734375	0.5822822402018133	3.0486856336898723e-06
1.190934814453125	0.48675225595997157	6.741689478400731e-06
1.1329974365234374	0.3966107332899649	1.4531381583631438e-05
1.116939453125	0.31499453169676317	3.053002293467871e-05
1.098881103515625	0.24385048692652442	6.25215037748206e-05
1.094733642578125	0.1840035919677199	0.00012479976313343764
1.0884755859375	0.1353352832366127	0.00024281760334162798
1.0978167724609376	0.09702370004128698	0.00046049894189605176
1.0954676513671875	0.06779953109924779	0.0008512540013105025
1.098660888671875	0.04618039137973471	0.0015338106793244715
1.1109383544921876	0.030659889794007474	0.002693806580421505
1.1155814208984376	0.019841094744370298	0.004611509662433051
1.12424365234375	0.01251534234122367	0.007694880818387493
1.1363741455078125	0.007694880818387471	0.012515342341223704
1.1288865966796875	0.004611509662433039	0.01984109474437035
1.13149267578125	0.0026938065804214878	0.030659889794007626
1.1358787841796876	0.0015338106793244607	0.04618039137973492
1.1327772216796874	0.0008512540013104993	0.06779953109924793
1.1311806640625	0.00046049894189605014	0.09702370004128717
1.120628173828125	0.00024281760334162714	0.13533528323661292
1.1147923583984376	0.0001247997631334372	0.18400359196772018
1.1157098388671876	6.252150377482015e-05	0.24385048692652514
1.1015421142578126	3.0530022934678436e-05	0.314994531696764
1.099670166015625	1.4531381583631387e-05	0.3966107332899654
1.09877099609375	6.741689478400708e-06	0.48675225595997207
1.0920908203125	3.048685633689856e-06	0.5822822402018138
1.098881103515625	1.343812277631519e-06	0.6789552902885686
1.0953392333984375	5.773599123465918e-07	0.7716686738745268
1.09240283203125	2.4178909476747177e-07	0.85487501672467
1.11101171875	9.86981139110593e-08	0.9231163463866363
1.133713134765625	3.927019510784397e-08	0.9716107671891232
1.178987548828125	1.522997974471252e-08	0.9968051145430331
1.2033590087890624	5.757284007027132e-09	0.9968051145430329
1.24643115234375	2.1213779139165976e-09	0.9716107671891226
1.2819239501953126	7.619044208991666e-10	0.9231163463866356
1.2644345703125	2.667257870669008e-10	0.8548750167246694
1.278070068359375	9.101470764487969e-11	0.7716686738745258
1.205432861328125	3.0271937126909755e-11	0.6789552902885675
1.123069091796875	9.81410970406499e-12	0.5822822402018127
1.059130615234375	3.1012991859194074e-12	0.486752255959971
1.039640869140625	9.552531605297814e-13	0.3966107332899643
1.0338232421875	2.8679750088880877e-13	0.3149945316967627
1.0357318115234375	8.392943572505899e-14	0.24385048692652406
1.0408154296875	2.394061514095652e-14	0.1840035919677193
1.0371448974609374	6.6563840049803625e-15	0.1353352832366122
1.04602734375	1.8039458325928044e-15	0.09702370004128698
1.03448388671875	4.765304735299156e-16	0.06779953109924779
1.0738673095703124	1.2269868983798635e-16	0.04618039137973471
1.2001474609375	3.079436362031953e-17	0.030659889794007474
1.8972666015625	7.533288557462739e-18	0.019841094744370243
2.468031982421875	1.796304814270403e-18	0.012515342341223635
1.915636962890625	4.175010055850544e-19	0.007694880818387451
0.22286669921875	0.019841094744370298	1.5279799682872937e-17
0.4058177795410156	0.03065988979400756	6.16659351490994e-17
1.067003662109375	0.04618039137973475	2.4258002935511285e-16
1.283025146484375	0.06779953109924783	9.301368016640084e-16
1.332924072265625	0.09702370004128709	3.476327411194989e-15
1.3547264404296875	0.13533528323661276	1.2664165549094176e-14
1.38313525390625	0.1840035919677199	4.4969136320232955e-14
1.4144254150390625	0.24385048692652475	1.55644785504638e-13
1.446027587890625	0.31499453169676345	5.25093527797419e-13
1.4891180419921874	0.3966107332899651	1.72671561546875e-12
1.538154541015625	0.48675225595997185	5.534610071700974e-12
1.58720947265625	0.5822822402018134	1.7291604867152204e-11
1.6581400146484375	0.678955290288568	5.2658154923891826e-11
1.7301165771484375	0.7716686738745263	1.5630685836019022e-10
1.817618896484375	0.8548750167246698	4.522436647695059e-10
1.905378173828125	0.923116346386636	1.2754076295260396e-09
1.99315576171875	0.9716107671891228	3.505965117042003e-09
2.06694921875	0.996805114543033	9.393949736049535e-09
2.10616748046875	0.996805114543033	2.4534145397154446e-08
2.119527587890625	0.9716107671891226	6.245622035317723e-08
2.063480712890625	0.9231163463866356	1.5497531357028912e-07
1.9494779052734375	0.8548750167246695	3.7482746881752084e-07
1.761773681640625	0.7716686738745262	8.836542241315566e-07
1.5973397216796874	0.6789552902885677	2.0305578494036726e-06
1.45417578125	0.5822822402018133	4.548104523682639e-06
1.3570570068359376	0.48675225595997157	9.929504305851047e-06
1.3063870849609376	0.3966107332899649	2.113035343044194e-05
1.2723992919921876	0.31499453169676317	4.382965126946305e-05
1.2554237060546876	0.24385048692652442	8.861583426604922e-05
1.255350341796875	0.1840035919677199	0.00017463717883977855
1.2458621826171874	0.1353352832366127	0.0003354626279025107
1.2490738525390626	0.09702370004128698	0.0006281070149764959
1.2573138427734376	0.06779953109924779	0.0011463182433300535
1.25854345703125	0.04618039137973471	0.002039195319842277
1.2709677734375	0.030659889794007474	0.003535855501507573
1.28082275390625	0.019841094744370298	0.005976022895005923
1.2868973388671876	0.01251534234122367	0.009844916976392417
1.2941280517578124	0.007694880818387471	0.015808618705241806
1.29930322265625	0.004611509662433039	0.02474331320515426
1.2917606201171874	0.0026938065804214878	0.03774886009129893
1.3002392578125	0.0015338106793244607	0.056134762834133684
1.2929901123046874	0.0008512540013104993	0.0813658196645251
1.2925130615234375	0.00046049894189605014	0.11495667048603483
1.2895400390625	0.00024281760334162714	0.15831002262193852
1.2795198974609374	0.0001247997631334372	0.21250282427502182
1.2727662353515625	6.252150377482015e-05	0.27803730045319386
1.269407958984375	3.0530022934678436e-05	0.35458754856089875
1.2617000732421875	1.4531381583631387e-05	0.4407841408053239
1.2558458251953124	6.741689478400708e-06	0.5340851477595165
1.2469083251953126	3.048685633689856e-06	0.6307788205474278
1.24466943359375	1.343812277631519e-06	0.7261490370736906
1.23892529296875	5.773599123465918e-07	0.8148102621687291
1.2384296875	2.4178909476747177e-07	0.8911878885041843
1.2510191650390625	9.86981139110593e-08	0.9500886338026269
1.2932655029296876	3.927019510784397e-08	0.9872815715902905
1.3327406005859375	1.522997974471252e-08	1.0
1.358947265625	5.757284007027132e-09	0.9872815715902905
1.4051944580078124	2.1213779139165976e-09	0.9500886338026274
1.4253082275390625	7.619044208991666e-10	0.8911878885041852
1.4118377685546875	2.667257870669008e-10	0.8148102621687301
1.423142578125	9.101470764487969e-11	0.7261490370736916
1.333731689453125	3.0271937126909755e-11	0.6307788205474288
1.25518505859375	9.81410970406499e-12	0.5340851477595175
1.191099853515625	3.1012991859194074e-12	0.4407841408053249
1.185704345703125	9.552531605297814e-13	0.3545875485608993
1.1775010986328125	2.8679750088880877e-13	0.2780373004531943
1.1797401123046876	8.392943572505899e-14	0.21250282427502212
1.181244873046875	2.394061514095652e-14	0.15831002262193877
1.1840894775390625	6.6563840049803625e-15	0.11495667048603504
1.1878883056640626	1.8039458325928044e-15	0.08136581966452558
1.18320849609375	4.765304735299156e-16	0.0561347628341339
1.20717626953125	1.2269868983798635e-16	0.037748860091299116
1.5012486572265624	3.079436362031953e-17	0.024743313205154382
2.30181787109375	7.533288557462739e-18	0.015808618705241893
2.632649658203125	1.796304814270403e-18	0.009844916976392469
1.6151962890625	4.175010055850544e-19	0.005976022895005958
0.11857228088378906	0.019841094744370298	1.5279799682872937e-17
0.7130670166015625	0.03065988979400756	6.16659351490994e-17
1.295963134765625	0.04618039137973475	2.4258002935511285e-16
1.4510926513671876	0.06779953109924783	9.301368016640084e-16
1.4681417236328125	0.09702370004128709	3.476327411194989e-15
1.4976700439453126	0.13533528323661276	1.2664165549094176e-14
1.521619384765625	0.1840035919677199	4.4969136320232955e-14
1.5593328857421875	0.24385048692652475	1.55644785504638e-13
1.586750732421875	0.31499453169676345	5.25093527797419e-13
1.6321168212890624	0.3966107332899651	1.72671561546875e-12
1.6830069580078124	0.48675225595997185	5.534610071700974e-12
1.7397513427734375	0.5822822402018134	1.7291604867152204e-11
1.797193115234375	0.678955290288568	5.2658154923891826e-11
1.88218115234375	0.7716686738745263	1.5630685836019022e-10
1.96830712890625	0.8548750167246698	4.522436647695059e-10
2.057204345703125	0.923116346386636	1.2754076295260396e-09
2.14542236328125	0.9716107671891228	3.505965117042003e-09
2.207782470703125	0.996805114543033	9.393949736049535e-09
2.24551416015625	0.996805114543033	2.4534145397154446e-08
2.245826171875	0.9716107671891226	6.245622035317723e-08
2.17212451171875	0.9231163463866356	1.5497531357028912e-07
2.0329796142578127	0.8548750167246695	3.7482746881752084e-07
1.852854736328125	0.7716686738745262	8.836542241315566e-07
1.6904761962890624	0.6789552902885677	2.0305578494036726e-06
1.56298486328125	0.5822822402018133	4.548104523682639e-06
1.4752623291015625	0.48675225595997157	9.929504305851047e-06
1.42442724609375	0.3966107332899649	2.113035343044194e-05
1.3940179443359375	0.31499453169676317	4.382965126946305e-05
1.3877232666015624	0.24385048692652442	8.861583426604922e-05
1.3844749755859376	0.1840035919677199	0.00017463717883977855
1.3760330810546875	0.1353352832366127	0.0003354626279025107
1.3808045654296874	0.09702370004128698	0.0006281070149764959
1.381079833984375	0.06779953109924779	0.0011463182433300535
1.390934814453125	0.04618039137973471	0.002039195319842277
1.4023314208984374	0.030659889794007474	0.003535855501507573
1.404643798828125	0.019841094744370298	0.005976022895005923
1.4115074462890624	0.01251534234122367	0.009844916976392417
1.4167928466796875	0.007694880818387471	0.015808618705241806
1.4226103515625	0.004611509662433039	0.02474331320515426
1.4255467529296875	0.0026938065804214878	0.03774886009129893
1.41576513671875	0.0015338106793244607	0.056134762834133684
1.418040771484375	0.0008512540013104993	0.0813658196645251
1.4098558349609376	0.00046049894189605014	0.11495667048603483
1.4064056396484375	0.00024281760334162714	0.15831002262193852
1.398275634765625	0.0001247997631334372	0.21250282427502182
1.39038427734375	6.252150377482015e-05	0.27803730045319386
1.38728271484375	3.0530022934678436e-05	0.35458754856089875
1.378033447265625	1.4531381583631387e-05	0.4407841408053239
1.3744547119140624	6.741689478400708e-06	0.5340851477595165
1.3594244384765626	3.048685633689856e-06	0.6307788205474278
1.3646915283203125	1.343812277631519e-06	0.7261490370736906
1.4031021728515625	5.773599123465918e-07	0.8148102621687291
1.4380811767578126	2.4178909476747177e-07	0.8911878885041843
1.4652420654296876	9.86981139110593e-08	0.9500886338026269
1.5018543701171876	3.927019510784397e-08	0.9872815715902905
1.565352294921875	1.522997974471252e-08	1.0
1.5314561767578125	5.757284007027132e-09	0.9872815715902905
1.5653338623046875	2.1213779139165976e-09	0.9500886338026274
1.5258221435546875	7.619044208991666e-10	0.8911878885041852
1.422500244140625	2.667257870669008e-10	0.8148102621687301
1.3400263671875	9.101470764487969e-11	0.7261490370736916
1.3125167236328126	3.0271937126909755e-11	0.6307788205474288
1.3050291748046876	9.81410970406499e-12	0.5340851477595175
1.303927978515625	3.1012991859194074e-12	0.4407841408053249
1.311709228515625	9.552531605297814e-13	0.3545875485608993
1.3018909912109375	2.8679750088880877e-13	0.2780373004531943
1.309231689453125	8.392943572505899e-14	0.21250282427502212
1.309011474609375	2.394061514095652e-14	0.15831002262193877
1.353221435546875	6.6563840049803625e-15	0.11495667048603504
1.4123699951171875	1.8039458325928044e-15	0.08136581966452558
2.071463623046875	4.765304735299156e-16	0.0561347628341339
2.69644091796875	1.2269868983798635e-16	0.037748860091299116
2.330135009765625	3.079436362031953e-17	0.024743313205154382
0.6163152465820313	0.019841094744370298	1.2269868983798635e-16
0.5407050170898438	0.03065988979400756	4.765304735299156e-16
1.2517899169921876	0.04618039137973475	1.8039458325928044e-15
1.5220599365234375	0.06779953109924783	6.65638400498055e-15
1.572197509765625	0.09702370004128709	2.3940615140956863e-14
1.5968076171875	0.13533528323661276	8.392943572506018e-14
1.6243172607421874	0.1840035919677199	2.867975008888118e-13
1.6573140869140626	0.24385048692652475	9.55253160529795e-13
1.68730126953125	0.31499453169676345	3.1012991859194514e-12
1.7202247314453125	0.3966107332899651	9.814109704065061e-12
1.7769691162109376	0.48675225595997185	3.0271937126909975e-11
1.8350899658203126	0.5822822402018134	9.101470764488001e-11
1.884456787109375	0.678955290288568	2.667257870669027e-10
1.9552037353515626	0.7716686738745263	7.61904420899172e-10
2.0452386474609376	0.8548750167246698	2.1213779139166125e-09
2.136154541015625	0.923116346386636	5.7572840070272345e-09
2.22418896484375	0.9716107671891228	1.522997974471279e-08
2.29515625	0.996805114543033	3.9270195107844665e-08
2.338999267578125	0.996805114543033	9.869811391106034e-08
2.3474228515625	0.9716107671891226	2.4178909476747436e-07
2.30669970703125	0.9231163463866356	5.773599123465981e-07
2.188989990234375	0.8548750167246695	1.343812277631526e-06
2.018683349609375	0.7716686738745262	3.0486856336898723e-06
1.8391824951171876	0.6789552902885677	6.741689478400731e-06
1.70101025390625	0.5822822402018133	1.4531381583631438e-05
1.5952843017578124	0.48675225595997157	3.053002293467871e-05
1.527859130859375	0.3966107332899649	6.25215037748206e-05
1.505267822265625	0.31499453169676317	0.00012479976313343807
1.4889344482421876	0.24385048692652442	0.00024281760334162887
1.478914306640625	0.1840035919677199	0.00046049894189605176
1.4744365234375	0.1353352832366127	0.0008512540013105025
1.4759412841796875	0.09702370004128698	0.0015338106793244715
1.480419189453125	0.06779953109924779	0.002693806580421505
1.4822911376953125	0.04618039137973471	0.004611509662433067
1.4906412353515626	0.030659889794007474	0.0076948808183875134
1.502900390625	0.019841094744370298	0.012515342341223704
1.502166259765625	0.01251534234122367	0.01984109474437035
1.5097091064453125	0.007694880818387471	0.030659889794007626
1.5191602783203124	0.004611509662433039	0.04618039137973492
1.517380126953125	0.0026938065804214878	0.06779953109924805
1.5181142578125	0.0015338106793244607	0.09702370004128733
1.52106884765625	0.0008512540013104993	0.13533528323661292
1.5178388671875	0.00046049894189605014	0.18400359196772018
1.5105164794921875	0.00024281760334162714	0.24385048692652514
1.5090850830078124	0.0001247997631334372	0.314994531696764
1.4968074951171875	6.252150377482015e-05	0.39661073328996577
1.5006798095703124	3.0530022934678436e-05	0.48675225595997257
1.49844091796875	1.4531381583631387e-05	0.5822822402018138
1.4882738037109375	6.741689478400708e-06	0.6789552902885686
1.4790611572265624	3.048685633689856e-06	0.7716686738745268
1.4849521484375	1.343812277631519e-06	0.85487501672467
1.5112689208984376	5.773599123465918e-07	0.9231163463866363
1.5567818603515624	2.4178909476747177e-07	0.9716107671891232
1.5736473388671874	9.86981139110593e-08	0.9968051145430331
1.610681640625	3.927019510784397e-08	0.9968051145430329
1.6697568359375	1.522997974471252e-08	0.9716107671891222
1.6491290283203126	5.757284007027132e-09	0.923116346386635
1.6643245849609376	2.1213779139165976e-09	0.8548750167246694
1.639402587890625	7.619044208991666e-10	0.7716686738745258
1.54936767578125	2.667257870669008e-10	0.6789552902885675
1.4543226318359375	9.101470764487969e-11	0.5822822402018127
1.42407861328125	3.0271937126909755e-11	0.486752255959971
1.415031005859375	9.81410970406499e-12	0.3966107332899643
1.4096722412109375	3.1012991859194074e-12	0.3149945316967627
1.4155081787109376	9.552531605297814e-13	0.24385048692652406
1.4118743896484376	2.8679750088880877e-13	0.1840035919677193
1.41868310546875	8.392943572505899e-14	0.1353352832366122
1.4129755859375	2.394061514095652e-14	0.0970237000412866
1.4636087646484375	6.6563840049803625e-15	0.06779953109924751
1.523472900390625	1.8039458325928044e-15	0.04618039137973471
2.149111083984375	4.765304735299156e-16	0.030659889794007474
2.81282958984375	1.2269868983798635e-16	0.019841094744370243
2.4970283203125	3.079436362031953e-17	0.012515342341223635
0.7848416748046875	0.019841094744370298	1.2269868983798635e-16
0.6106627807617188	0.03065988979400756	4.765304735299156e-16
1.32910693359375	0.04618039137973475	1.8039458325928044e-15
1.6204266357421875	0.06779953109924783	6.65638400498055e-15
1.6828050537109376	0.09702370004128709	2.3940615140956863e-14
1.7027904052734375	0.13533528323661276	8.392943572506018e-14
1.7221884765625	0.1840035919677199	2.867975008888118e-13
1.756965576171875	0.24385048692652475	9.55253160529795e-13
1.787282958984375	0.31499453169676345	3.1012991859194514e-12
1.82673974609375	0.3966107332899651	9.814109704065061e-12
1.8752808837890624	0.48675225595997185	3.0271937126909975e-11
1.9285567626953124	0.5822822402018134	9.101470764488001e-11
1.9949542236328126	0.678955290288568	2.667257870669027e-10
2.063718994140625	0.7716686738745263	7.61904420899172e-10
2.144669921875	0.8548750167246698	2.1213779139166125e-09
2.236173095703125	0.923116346386636	5.7572840070272345e-09
2.3287587890625	0.9716107671891228	1.522997974471279e-08
2.39989111328125	0.996805114543033	3.9270195107844665e-08
2.45138671875	0.996805114543033	9.869811391106034e-08
2.466270263671875	0.9716107671891226	2.4178909476747436e-07
2.423069580078125	0.9231163463866356	5.773599123465981e-07
2.302845703125	0.8548750167246695	1.343812277631526e-06
2.1377509765625	0.7716686738745262	3.0486856336898723e-06
1.9628382568359375	0.6789552902885677	6.741689478400731e-06
1.815581787109375	0.5822822402018133	1.4531381583631438e-05
1.721325927734375	0.48675225595997157	3.053002293467871e-05
1.64949609375	0.3966107332899649	6.25215037748206e-05
1.608534423828125	0.31499453169676317	0.00012479976313343807
1.6055615234375	0.24385048692652442	0.00024281760334162887
1.6036162109375	0.1840035919677199	0.00046049894189605176
1.593265625	0.1353352832366127	0.0008512540013105025
1.596605712890625	0.09702370004128698	0.0015338106793244715
1.597082763671875	0.06779953109924779	0.002693806580421505
1.5984775390625	0.04618039137973471	0.004611509662433067
1.613232666015625	0.030659889794007474	0.0076948808183875134
1.615838623046875	0.019841094744370298	0.012515342341223704
1.624372314453125	0.01251534234122367	0.01984109474437035
1.625546875	0.007694880818387471	0.030659889794007626
1.6320067138671874	0.004611509662433039	0.04618039137973492
1.63876025390625	0.0026938065804214878	0.06779953109924805
1.645	0.0015338106793244607	0.09702370004128733
1.6434583740234374	0.0008512540013104993	0.13533528323661292
1.637897705078125	0.00046049894189605014	0.18400359196772018
1.631015625	0.00024281760334162714	0.24385048692652514
1.6365947265625	0.0001247997631334372	0.314994531696764
1.6276939697265624	6.252150377482015e-05	0.39661073328996577
1.6208304443359376	3.0530022934678436e-05	0.48675225595997257
1.6165177001953126	1.4531381583631387e-05	0.5822822402018138
1.61020458984375	6.741689478400708e-06	0.6789552902885686
1.598642822265625	3.048685633689856e-06	0.7716686738745268
1.6048641357421876	1.343812277631519e-06	0.85487501672467
1.5993585205078125	5.773599123465918e-07	0.9231163463866363
1.6215643310546874	2.4178909476747177e-07	0.9716107671891232
1.6715369873046875	9.86981139110593e-08	0.9968051145430331
1.676712158203125	3.927019510784397e-08	0.9968051145430329
1.714297119140625	1.522997974471252e-08	0.9716107671891222
1.773298828125	5.757284007027132e-09	0.923116346386635
1.7646182861328126	2.1213779139165976e-09	0.8548750167246694
1.7563231201171876	7.619044208991666e-10	0.7716686738745258
1.76291162109375	2.667257870669008e-10	0.6789552902885675
1.674106201171875	9.101470764487969e-11	0.5822822402018127
1.5870810546875	3.0271937126909755e-11	0.486752255959971
1.5314561767578125	9.81410970406499e-12	0.3966107332899643
1.5182059326171875	3.1012991859194074e-12	0.3149945316967627
1.5213624267578125	9.552531605297814e-13	0.24385048692652406
1.5194906005859374	2.8679750088880877e-13	0.1840035919677193
1.516939697265625	8.392943572505899e-14	0.1353352832366122
1.5218214111328126	2.394061514095652e-14	0.0970237000412866
1.52584033203125	6.6563840049803625e-15	0.06779953109924751
1.5483583984375	1.8039458325928044e-15	0.04618039137973471
1.5552769775390625	4.765304735299156e-16	0.030659889794007474
1.9575162353515625	1.2269868983798635e-16	0.019841094744370243
2.797799072265625	3.079436362031953e-17	0.012515342341223635
2.918390380859375	7.533288557462739e-18	0.007694880818387451
1.5162423095703126	1.796304814270403e-18	0.004611509662433027
0.40229421997070314	0.019841094744370298	3.079436362031953e-17
1.1917789306640625	0.03065988979400756	1.2269868983798635e-16
1.6779234619140626	0.04618039137973475	4.765304735299156e-16
1.774271484375	0.06779953109924783	1.8039458325928044e-15
1.79667919921875	0.09702370004128709	6.65638400498055e-15
1.823014404296875	0.13533528323661276	2.3940615140956863e-14
1.8522674560546875	0.1840035919677199	8.392943572506018e-14
1.8709315185546875	0.24385048692652475	2.867975008888118e-13
1.9144256591796875	0.31499453169676345	9.55253160529795e-13
1.9438623046875	0.3966107332899651	3.101299185919429e-12
2.0059654541015624	0.48675225595997185	9.814109704065061e-12
2.0563232421875	0.5822822402018134	3.0271937126909975e-11
2.13022705078125	0.678955290288568	9.101470764488001e-11
2.202864013671875	0.7716686738745263	2.667257870669027e-10
2.297578857421875	0.8548750167246698	7.61904420899172e-10
2.3854482421875	0.923116346386636	2.1213779139166125e-09
2.46621533203125	0.9716107671891228	5.7572840070272345e-09
2.52567578125	0.996805114543033	1.522997974471279e-08
2.551735595703125	0.996805114543033	3.927019510784439e-08
2.53420947265625	0.9716107671891226	9.869811391106034e-08
2.44613818359375	0.9231163463866356	2.4178909476747436e-07
2.293247802734375	0.8548750167246695	5.773599123465949e-07
2.1141689453125	0.7716686738745262	1.343812277631526e-06
1.9641595458984376	0.6789552902885677	3.0486856336898723e-06
1.8372554931640626	0.5822822402018133	6.741689478400731e-06
1.7667655029296876	0.48675225595997157	1.4531381583631438e-05
1.7323187255859376	0.3966107332899649	3.053002293467871e-05
1.7006065673828126	0.31499453169676317	6.25215037748206e-05
1.694403564453125	0.24385048692652442	0.00012479976313343807
1.68482373046875	0.1840035919677199	0.00024281760334162798
1.6833372802734374	0.1353352832366127	0.00046049894189605176
1.6807679443359376	0.09702370004128698	0.0008512540013105025
1.6838695068359375	0.06779953109924779	0.0015338106793244715
1.6969727783203126	0.04618039137973471	0.002693806580421505
1.706607666015625	0.030659889794007474	0.004611509662433067
1.7010653076171875	0.019841094744370298	0.007694880818387493
1.709910888671875	0.01251534234122367	0.012515342341223704
1.7116361083984375	0.007694880818387471	0.01984109474437035
1.7257672119140626	0.004611509662433039	0.030659889794007626
1.7265928955078125	0.0026938065804214878	0.04618039137973492
1.724152099609375	0.0015338106793244607	0.06779953109924805
1.7270150146484375	0.0008512540013104993	0.09702370004128717
1.7221517333984375	0.00046049894189605014	0.13533528323661292
1.7268131103515625	0.00024281760334162714	0.18400359196772018
1.7037080078125	0.0001247997631334372	0.24385048692652514
1.7105716552734376	6.252150377482015e-05	0.314994531696764
1.697982177734375	3.0530022934678436e-05	0.39661073328996577
1.689099853515625	1.4531381583631387e-05	0.48675225595997207
1.678657470703125	6.741689478400708e-06	0.5822822402018138
1.6824747314453126	3.048685633689856e-06	0.6789552902885686
1.6841998291015625	1.343812277631519e-06	0.7716686738745268
1.6836859130859374	5.773599123465918e-07	0.85487501672467
1.7083876953125	2.4178909476747177e-07	0.9231163463866363
1.7614066162109374	9.86981139110593e-08	0.9716107671891232
1.7702156982421875	3.927019510784397e-08	0.9968051145430331
1.801524169921875	1.522997974471252e-08	0.9968051145430329
1.8553505859375	5.757284007027132e-09	0.9716107671891222
1.8386685791015625	2.1213779139165976e-09	0.9231163463866356
1.8696651611328126	7.619044208991666e-10	0.8548750167246694
1.845018310546875	2.667257870669008e-10	0.7716686738745258
1.72940087890625	9.101470764487969e-11	0.6789552902885675
1.6679583740234376	3.0271937126909755e-11	0.5822822402018127
1.621234130859375	9.81410970406499e-12	0.486752255959971
1.6258404541015625	3.1012991859194074e-12	0.3966107332899643
1.6148109130859376	9.552531605297814e-13	0.3149945316967627
1.6116910400390625	2.8679750088880877e-13	0.24385048692652406
1.6153797607421876	8.392943572505899e-14	0.1840035919677193
1.623748291015625	2.394061514095652e-14	0.1353352832366122
1.62165625	6.6563840049803625e-15	0.0970237000412866
1.6570938720703126	1.8039458325928044e-15	0.06779953109924779
1.6793916015625	4.765304735299156e-16	0.04618039137973471
2.10978271484375	1.2269868983798635e-16	0.030659889794007474
3.044725341796875	3.079436362031953e-17	0.019841094744370243
3.18383349609375	7.533288557462739e-18	0.012515342341223635
1.8434034423828125	1.796304814270403e-18	0.007694880818387451
0.58733740234375	0.019841094744370298	3.079436362031953e-17
1.2449263916015625	0.03065988979400756	1.2269868983798635e-16
1.77201416015625	0.04618039137973475	4.765304735299156e-16
1.885209228515625	0.06779953109924783	1.8039458325928044e-15
1.9161507568359375	0.09702370004128709	6.65638400498055e-15
1.93912744140625	0.13533528323661276	2.3940615140956863e-14
1.9712249755859375	0.1840035919677199	8.392943572506018e-14
2.008424560546875	0.24385048692652475	2.867975008888118e-13
2.0460462646484374	0.31499453169676345	9.55253160529795e-13
2.09278857421875	0.3966107332899651	3.101299185919429e-12
2.141017822265625	0.48675225595997185	9.814109704065061e-12
2.199432373046875	0.5822822402018134	3.0271937126909975e-11
2.281612548828125	0.678955290288568	9.101470764488001e-11
2.35718603515625	0.7716686738745263	2.667257870669027e-10
2.45852587890625	0.8548750167246698	7.61904420899172e-10
2.5540478515625	0.923116346386636	2.1213779139166125e-09
2.628703857421875	0.9716107671891228	5.7572840070272345e-09
2.687540283203125	0.996805114543033	1.522997974471279e-08
2.718683837890625	0.996805114543033	3.927019510784439e-08
2.702221923828125	0.9716107671891226	9.869811391106034e-08
2.614334228515625	0.9231163463866356	2.4178909476747436e-07
2.46408642578125	0.8548750167246695	5.773599123465949e-07
2.27293212890625	0.7716686738745262	1.343812277631526e-06
2.111305908203125	0.6789552902885677	3.0486856336898723e-06
1.9844202880859374	0.5822822402018133	6.741689478400731e-06
1.9244825439453126	0.48675225595997157	1.4531381583631438e-05
1.8716103515625	0.3966107332899649	3.053002293467871e-05
1.8403203125	0.31499453169676317	6.25215037748206e-05
1.843697021484375	0.24385048692652442	0.00012479976313343807
1.8320802001953125	0.1840035919677199	0.00024281760334162798
1.8483768310546875	0.1353352832366127	0.00046049894189605176
1.831548095703125	0.09702370004128698	0.0008512540013105025
1.8302083740234374	0.06779953109924779	0.0015338106793244715
1.84248583984375	0.04618039137973471	0.002693806580421505
1.842265625	0.030659889794007474	0.004611509662433067
1.8513314208984375	0.019841094744370298	0.007694880818387493
1.858286865234375	0.01251534234122367	0.012515342341223704
1.869206298828125	0.007694880818387471	0.01984109474437035
1.8765655517578126	0.004611509662433039	0.030659889794007626
1.877189453125	0.0026938065804214878	0.04618039137973492
1.87386767578125	0.0015338106793244607	0.06779953109924805
1.8732254638671875	0.0008512540013104993	0.09702370004128717
1.881410400390625	0.00046049894189605014	0.13533528323661292
1.8700872802734374	0.00024281760334162714	0.18400359196772018
1.871647216796875	0.0001247997631334372	0.24385048692652514
1.8550936279296875	6.252150377482015e-05	0.314994531696764
1.85318505859375	3.0530022934678436e-05	0.39661073328996577
1.857754638671875	1.4531381583631387e-05	0.48675225595997207
1.854451416015625	6.741689478400708e-06	0.5822822402018138
1.845642333984375	3.048685633689856e-06	0.6789552902885686
1.8641412353515625	1.343812277631519e-06	0.7716686738745268
1.9080574951171876	5.773599123465918e-07	0.85487501672467
1.9280428466796875	2.4178909476747177e-07	0.9231163463866363
1.94496337890625	9.86981139110593e-08	0.9716107671891232
1.99394482421875	3.927019510784397e-08	0.9968051145430331
2.0064609375	1.522997974471252e-08	0.9968051145430329
2.0038916015625	5.757284007027132e-09	0.9716107671891222
2.0087550048828127	2.1213779139165976e-09	0.9231163463866356
1.9155084228515624	7.619044208991666e-10	0.8548750167246694
1.8321903076171875	2.667257870669008e-10	0.7716686738745258
1.7821260986328125	9.101470764487969e-11	0.6789552902885675
1.7753358154296874	3.0271937126909755e-11	0.5822822402018127
1.7731519775390625	9.81410970406499e-12	0.486752255959971
1.771592041015625	3.1012991859194074e-12	0.3966107332899643
1.7746751708984374	9.552531605297814e-13	0.3149945316967627
1.7793917236328125	2.8679750088880877e-13	0.24385048692652406
1.7845853271484375	8.392943572505899e-14	0.1840035919677193
1.7715003662109374	2.394061514095652e-14	0.1353352832366122
1.8105350341796875	6.6563840049803625e-15	0.0970237000412866
2.150652587890625	1.8039458325928044e-15	0.06779953109924779
3.014995361328125	4.765304735299156e-16	0.04618039137973471
3.446046875	1.2269868983798635e-16	0.030659889794007474
2.425106689453125	3.079436362031953e-17	0.019841094744370243
0.8087359619140625	0.019841094744370298	1.2269868983798635e-16
1.1922376708984375	0.03065988979400756	4.765304735299156e-16
1.84044873046875	0.04618039137973475	1.8039458325928044e-15
2.0401552734375	0.06779953109924783	6.65638400498055e-15
2.0726748046875	0.09702370004128709	2.3940615140956863e-14
2.11207666015625	0.13533528323661276	8.392943572506018e-14
2.139568115234375	0.1840035919677199	2.867975008888118e-13
2.1790615234375	0.24385048692652475	9.55253160529795e-13
2.21323291015625	0.31499453169676345	3.1012991859194514e-12
2.258397216796875	0.3966107332899651	9.814109704065061e-12
2.3122236328125	0.48675225595997185	3.0271937126909975e-11
2.380658203125	0.5822822402018134	9.101470764488001e-11
2.448413818359375	0.678955290288568	2.667257870669027e-10
2.53516357421875	0.7716686738745263	7.61904420899172e-10
2.620170166015625	0.8548750167246698	2.1213779139166125e-09
2.729236083984375	0.923116346386636	5.7572840070272345e-09
2.8272724609375	0.9716107671891228	1.522997974471279e-08
2.8984599609375	0.996805114543033	3.9270195107844665e-08
2.938760986328125	0.996805114543033	9.869811391106034e-08
2.929750244140625	0.9716107671891226	2.4178909476747436e-07
2.854341552734375	0.9231163463866356	5.773599123465981e-07
2.693156005859375	0.8548750167246695	1.343812277631526e-06
2.510884033203125	0.7716686738745262	3.0486856336898723e-06
2.326409912109375	0.6789552902885677	6.741689478400731e-06
2.189210205078125	0.5822822402018133	1.4531381583631438e-05
2.09721142578125	0.48675225595997157	3.053002293467871e-05
2.0479180908203123	0.3966107332899649	6.25215037748206e-05
2.02127099609375	0.31499453169676317	0.00012479976313343807
2.0106085205078124	0.24385048692652442	0.00024281760334162887
2.008424560546875	0.1840035919677199	0.00046049894189605176
1.9955416259765626	0.1353352832366127	0.0008512540013105025
2.007048095703125	0.09702370004128698	0.0015338106793244715
2.00747021484375	0.06779953109924779	0.002693806580421505
2.00605712890625	0.04618039137973471	0.004611509662433067
2.0146458740234374	0.030659889794007474	0.0076948808183875134
2.021252685546875	0.019841094744370298	0.012515342341223704
2.0216563720703125	0.01251534234122367	0.01984109474437035
2.031254638671875	0.007694880818387471	0.030659889794007626
2.036796875	0.004611509662433039	0.04618039137973492
2.041733642578125	0.0026938065804214878	0.06779953109924805
2.04824853515625	0.0015338106793244607	0.09702370004128733
2.05151513671875	0.0008512540013104993	0.13533528323661292
2.0534970703125	0.00046049894189605014	0.18400359196772018
2.0414949951171875	0.00024281760334162714	0.24385048692652514
2.0354755859375	0.0001247997631334372	0.314994531696764
2.0267581787109377	6.252150377482015e-05	0.39661073328996577
2.0206654052734376	3.0530022934678436e-05	0.48675225595997257
2.0135263671875	1.4531381583631387e-05	0.5822822402018138
1.99730322265625	6.741689478400708e-06	0.6789552902885686
1.98935693359375	3.048685633689856e-06	0.7716686738745268
1.9828602294921875	1.343812277631519e-06	0.85487501672467
1.9903846435546875	5.773599123465918e-07	0.9231163463866363
2.01600390625	2.4178909476747177e-07	0.9716107671891232
2.074216552734375	9.86981139110593e-08	0.9968051145430331
2.08609033203125	3.927019510784397e-08	0.9968051145430329
2.126611572265625	1.522997974471252e-08	0.9716107671891222
2.161920654296875	5.757284007027132e-09	0.923116346386635
2.144908447265625	2.1213779139165976e-09	0.8548750167246694
2.153570556640625	7.619044208991666e-10	0.7716686738745258
2.11615087890625	2.667257870669008e-10	0.6789552902885675
2.0113975830078124	9.101470764487969e-11	0.5822822402018127
1.942357421875	3.0271937126909755e-11	0.486752255959971
1.9074703369140624	9.81410970406499e-12	0.3966107332899643
1.9018729248046875	3.1012991859194074e-12	0.3149945316967627
1.896844482421875	9.552531605297814e-13	0.24385048692652406
1.8976519775390626	2.8679750088880877e-13	0.1840035919677193
1.900735107421875	8.392943572505899e-14	0.1353352832366122
1.8968995361328125	2.394061514095652e-14	0.0970237000412866
1.8954130859375	6.6563840049803625e-15	0.06779953109924751
1.937384033203125	1.8039458325928044e-15	0.04618039137973471
1.9524510498046874	4.765304735299156e-16	0.030659889794007474
2.420573974609375	1.2269868983798635e-16	0.019841094744370243
3.2230517578125	3.079436362031953e-17	0.012515342341223635
3.26553662109375	7.533288557462739e-18	0.007694880818387451
1.7903294677734376	1.796304814270403e-18	0.004611509662433027
0.87957470703125	0.019841094744370298	3.079436362031953e-17
1.6864754638671875	0.03065988979400756	1.2269868983798635e-16
2.09223828125	0.04618039137973475	4.765304735299156e-16
2.17977734375	0.06779953109924783	1.8039458325928044e-15
2.193009033203125	0.09702370004128709	6.65638400498055e-15
2.2231796875	0.13533528323661276	2.3940615140956863e-14
2.23854052734375	0.1840035919677199	8.392943572506018e-14
2.288292724609375	0.24385048692652475	2.867975008888118e-13
2.326556396484375	0.31499453169676345	9.55253160529795e-13
2.36232470703125	0.3966107332899651	3.101299185919429e-12
2.419289306640625	0.48675225595997185	9.814109704065061e-12
2.478712890625	0.5822822402018134	3.0271937126909975e-11
2.555057373046875	0.678955290288568	9.101470764488001e-11
2.6417705078125	0.7716686738745263	2.667257870669027e-10
2.737623046875	0.8548750167246698	7.61904420899172e-10
2.837256103515625	0.923116346386636	2.1213779139166125e-09
2.927933349609375	0.9716107671891228	5.7572840070272345e-09
2.991633056640625	0.996805114543033	1.522997974471279e-08
3.024831787109375	0.996805114543033	3.927019510784439e-08
2.9906787109375	0.9716107671891226	9.869811391106034e-08
2.87720849609375	0.9231163463866356	2.4178909476747436e-07
2.70954443359375	0.8548750167246695	5.773599123465949e-07
2.507433837890625	0.7716686738745262	1.343812277631526e-06
2.33119970703125	0.6789552902885677	3.0486856336898723e-06
2.2053046875	0.5822822402018133	6.741689478400731e-06
2.1166279296875	0.48675225595997157	1.4531381583631438e-05
2.084787353515625	0.3966107332899649	3.053002293467871e-05
2.061847412109375	0.31499453169676317	6.25215037748206e-05
2.0449818115234377	0.24385048692652442	0.00012479976313343807
2.0417152099609375	0.1840035919677199	0.00024281760334162798
2.0312362060546874	0.1353352832366127	0.00046049894189605176
2.03958642578125	0.09702370004128698	0.0008512540013105025
2.0417701416015626	0.06779953109924779	0.0015338106793244715
2.035053466796875	0.04618039137973471	0.002693806580421505
2.0459727783203125	0.030659889794007474	0.004611509662433067
2.0474959716796874	0.019841094744370298	0.007694880818387493
2.05267138671875	0.01251534234122367	0.012515342341223704
2.056011474609375	0.007694880818387471	0.01984109474437035
2.06531591796875	0.004611509662433039	0.030659889794007626
2.06694921875	0.0026938065804214878	0.04618039137973492
2.066967529296875	0.0015338106793244607	0.06779953109924805
2.072656494140625	0.0008512540013104993	0.09702370004128717
2.068123779296875	0.00046049894189605014	0.13533528323661292
2.0593330078125	0.00024281760334162714	0.18400359196772018
2.050340576171875	0.0001247997631334372	0.24385048692652514
2.049514892578125	6.252150377482015e-05	0.314994531696764
2.0398800048828125	3.0530022934678436e-05	0.39661073328996577
2.029896484375	1.4531381583631387e-05	0.48675225595997207
2.0201331787109376	6.741689478400708e-06	0.5822822402018138
2.01499462890625	3.048685633689856e-06	0.6789552902885686
2.013563232421875	1.343812277631519e-06	0.7716686738745268
2.0040750732421877	5.773599123465918e-07	0.85487501672467
2.0099112548828124	2.4178909476747177e-07	0.9231163463866363
2.0371270751953126	9.86981139110593e-08	0.9716107671891232
2.08590673828125	3.927019510784397e-08	0.9968051145430331
2.103176025390625	1.522997974471252e-08	0.9968051145430329
2.13481494140625	5.757284007027132e-09	0.9716107671891222
2.17750146484375	2.1213779139165976e-09	0.9231163463866356
2.173959716796875	7.619044208991666e-10	0.8548750167246694
2.16911474609375	2.667257870669008e-10	0.7716686738745258
2.1113427734375	9.101470764487969e-11	0.6789552902885675
2.027694091796875	3.0271937126909755e-11	0.5822822402018127
1.968986083984375	9.81410970406499e-12	0.486752255959971
1.924299072265625	3.1012991859194074e-12	0.3966107332899643
1.9213994140625	9.552531605297814e-13	0.3149945316967627
1.9035428466796875	2.8679750088880877e-13	0.24385048692652406
1.9052130126953124	8.392943572505899e-14	0.1840035919677193
1.905580078125	2.394061514095652e-14	0.1353352832366122
1.906038818359375	6.6563840049803625e-15	0.0970237000412866
1.90080859375	1.8039458325928044e-15	0.06779953109924779
1.9227574462890624	4.765304735299156e-16	0.04618039137973471
1.9427244873046876	1.2269868983798635e-16	0.030659889794007474
2.308920166015625	3.079436362031953e-17	0.019841094744370243
3.1337509765625	7.533288557462739e-18	0.012515342341223635
3.297946533203125	1.796304814270403e-18	0.007694880818387451
2.009525634765625	4.175010055850544e-19	0.004611509662433027
0.7857409057617187	0.019841094744370298	1.5279799682872937e-17
1.564948486328125	0.03065988979400756	6.16659351490994e-17
2.052304443359375	0.04618039137973475	2.4258002935511285e-16
2.16603173828125	0.06779953109924783	9.301368016640084e-16
2.178859619140625	0.09702370004128709	3.476327411194989e-15
2.2091220703125	0.13533528323661276	1.2664165549094176e-14
2.237861328125	0.1840035919677199	4.4969136320232955e-14
2.263480712890625	0.24385048692652475	1.55644785504638e-13
2.29289892578125	0.31499453169676345	5.25093527797419e-13
2.335952880859375	0.3966107332899651	1.72671561546875e-12
2.380199462890625	0.48675225595997185	5.534610071700974e-12
2.438522216796875	0.5822822402018134	1.7291604867152204e-11
2.511177734375	0.678955290288568	5.2658154923891826e-11
2.589797607421875	0.7716686738745263	1.5630685836019022e-10
2.68487939453125	0.8548750167246698	4.522436647695059e-10
2.775354736328125	0.923116346386636	1.2754076295260396e-09
2.8647841796875	0.9716107671891228	3.505965117042003e-09
2.938412353515625	0.996805114543033	9.393949736049535e-09
2.97498779296875	0.996805114543033	2.4534145397154446e-08
2.955314453125	0.9716107671891226	6.245622035317723e-08
2.8673349609375	0.9231163463866356	1.5497531357028912e-07
2.712480712890625	0.8548750167246695	3.7482746881752084e-07
2.510792236328125	0.7716686738745262	8.836542241315566e-07
2.333420166015625	0.6789552902885677	2.0305578494036726e-06
2.19917529296875	0.5822822402018133	4.548104523682639e-06
2.117380615234375	0.48675225595997157	9.929504305851047e-06
2.06186572265625	0.3966107332899649	2.113035343044194e-05
2.039164306640625	0.31499453169676317	4.382965126946305e-05
2.0245008544921874	0.24385048692652442	8.861583426604922e-05
2.019362548828125	0.1840035919677199	0.00017463717883977855
2.01800439453125	0.1353352832366127	0.0003354626279025107
2.014517578125	0.09702370004128698	0.0006281070149764959
2.0059654541015624	0.06779953109924779	0.0011463182433300535
2.0125538330078125	0.04618039137973471	0.002039195319842277
2.023271240234375	0.030659889794007474	0.003535855501507573
2.023675048828125	0.019841094744370298	0.005976022895005923
2.0139669189453127	0.01251534234122367	0.009844916976392417
2.0291256103515627	0.007694880818387471	0.015808618705241806
2.0291807861328124	0.004611509662433039	0.02474331320515426
2.0361361083984373	0.0026938065804214878	0.03774886009129893
2.029327392578125	0.0015338106793244607	0.056134762834133684
2.026905029296875	0.0008512540013104993	0.0813658196645251
2.030098388671875	0.00046049894189605014	0.11495667048603483
2.016885009765625	0.00024281760334162714	0.15831002262193852
2.019619384765625	0.0001247997631334372	0.21250282427502182
2.0077822265625	6.252150377482015e-05	0.27803730045319386
1.9964957275390625	3.0530022934678436e-05	0.35458754856089875
1.99431201171875	1.4531381583631387e-05	0.4407841408053239
1.98423681640625	6.741689478400708e-06	0.5340851477595165
1.9805845947265626	3.048685633689856e-06	0.6307788205474278
1.9780521240234374	1.343812277631519e-06	0.7261490370736906
1.9647286376953126	5.773599123465918e-07	0.8148102621687291
1.9663067626953126	2.4178909476747177e-07	0.8911878885041843
1.96538916015625	9.86981139110593e-08	0.9500886338026269
1.963921142578125	3.927019510784397e-08	0.9872815715902905
1.97344580078125	1.522997974471252e-08	1.0
1.99730322265625	5.757284007027132e-09	0.9872815715902905
2.0377144775390623	2.1213779139165976e-09	0.9500886338026274
2.0584521484375	7.619044208991666e-10	0.8911878885041852
2.086769287109375	2.667257870669008e-10	0.8148102621687301
2.131346435546875	9.101470764487969e-11	0.7261490370736916
2.12393212890625	3.0271937126909755e-11	0.6307788205474288
2.11402197265625	9.81410970406499e-12	0.5340851477595175
2.050781005859375	3.1012991859194074e-12	0.4407841408053249
1.9821077880859375	9.552531605297814e-13	0.3545875485608993
1.91835302734375	2.8679750088880877e-13	0.2780373004531943
1.879373291015625	8.392943572505899e-14	0.21250282427502212
1.8663067626953125	2.394061514095652e-14	0.15831002262193877
1.862709716796875	6.6563840049803625e-15	0.11495667048603504
1.855772705078125	1.8039458325928044e-15	0.08136581966452558
1.8619940185546875	4.765304735299156e-16	0.0561347628341339
1.860323974609375	1.2269868983798635e-16	0.037748860091299116
1.8581767578125	3.079436362031953e-17	0.024743313205154382
1.8603790283203125	7.533288557462739e-18	0.015808618705241893
1.87537255859375	1.796304814270403e-18	0.009844916976392469
2.196275634765625	4.175010055850544e-19	0.005976022895005958
3.015930908203125	9.458386988221946e-20	0.0035358555015075816
3.289724609375	2.0886164474088106e-20	0.0020391953198422826
2.224262451171875	4.4955452089185905e-21	0.0011463182433300576
0.7628926391601563	0.019841094744370298	1.796304814270403e-18
1.42327099609375	0.03065988979400756	7.533288557462739e-18
1.9711148681640625	0.04618039137973475	3.079436362031953e-17
2.10721337890625	0.06779953109924783	1.2269868983798635e-16
2.128373291015625	0.09702370004128709	4.765304735299156e-16
2.1497900390625	0.13533528323661276	1.8039458325928044e-15
2.1748037109375	0.1840035919677199	6.65638400498055e-15
2.20447900390625	0.24385048692652475	2.3940615140956863e-14
2.2421005859375	0.31499453169676345	8.392943572506018e-14
2.28034619140625	0.3966107332899651	2.867975008888098e-13
2.329089111328125	0.48675225595997185	9.552531605297883e-13
2.389595703125	0.5822822402018134	3.101299185919429e-12
2.448468994140625	0.678955290288568	9.814109704065061e-12
2.5321357421875	0.7716686738745263	3.0271937126909975e-11
2.6239140625	0.8548750167246698	9.101470764488001e-11
2.714260986328125	0.923116346386636	2.667257870669027e-10
2.798478271484375	0.9716107671891228	7.61904420899172e-10
2.86711474609375	0.996805114543033	2.1213779139166125e-09
2.915141845703125	0.996805114543033	5.757284007027194e-09
2.91317822265625	0.9716107671891226	1.5229979744712682e-08
2.839109619140625	0.9231163463866356	3.927019510784439e-08
2.683301025390625	0.8548750167246695	9.869811391105965e-08
2.50457080078125	0.7716686738745262	2.417890947674731e-07
2.328208251953125	0.6789552902885677	5.773599123465949e-07
2.188714599609375	0.5822822402018133	1.343812277631526e-06
2.103561279296875	0.48675225595997157	3.0486856336898723e-06
2.04736767578125	0.3966107332899649	6.741689478400731e-06
2.024831298828125	0.31499453169676317	1.4531381583631438e-05
1.9974500732421876	0.24385048692652442	3.053002293467871e-05
1.990347900390625	0.1840035919677199	6.252150377482037e-05
1.9924949951171875	0.1353352832366127	0.00012479976313343764
1.9917059326171875	0.09702370004128698	0.00024281760334162798
1.9904395751953126	0.06779953109924779	0.00046049894189605176
1.990990234375	0.04618039137973471	0.0008512540013105025
1.9947523193359376	0.030659889794007474	0.0015338106793244715
1.9998359375	0.019841094744370298	0.002693806580421495
2.0068096923828125	0.01251534234122367	0.004611509662433051
2.0021116943359374	0.007694880818387471	0.007694880818387493
2.0089384765625	0.004611509662433039	0.012515342341223704
2.011140869140625	0.0026938065804214878	0.01984109474437035
2.0106634521484374	0.0015338106793244607	0.030659889794007626
2.009213623046875	0.0008512540013104993	0.046180391379734814
2.0078739013671876	0.00046049894189605014	0.06779953109924793
2.003781494140625	0.00024281760334162714	0.09702370004128717
1.99829443359375	0.0001247997631334372	0.13533528323661292
1.9912470703125	6.252150377482015e-05	0.18400359196772018
1.9849156494140625	3.0530022934678436e-05	0.24385048692652514
1.9759598388671875	1.4531381583631387e-05	0.31499453169676356
1.97344580078125	6.741689478400708e-06	0.3966107332899654
1.9581767578125	3.048685633689856e-06	0.48675225595997207
1.9600487060546874	1.343812277631519e-06	0.5822822402018138
1.959278076171875	5.773599123465918e-07	0.6789552902885686
1.9486337890625	2.4178909476747177e-07	0.7716686738745268
1.94417431640625	9.86981139110593e-08	0.85487501672467
1.9498634033203126	3.927019510784397e-08	0.9231163463866363
1.94142138671875	1.522997974471252e-08	0.9716107671891232
1.93620947265625	5.757284007027132e-09	0.9968051145430331
1.949459716796875	2.1213779139165976e-09	0.996805114543033
1.967921875	7.619044208991666e-10	0.9716107671891226
2.018114501953125	2.667257870669008e-10	0.9231163463866356
2.03215380859375	9.101470764487969e-11	0.8548750167246694
2.05806689453125	3.0271937126909755e-11	0.7716686738745258
2.09783544921875	9.81410970406499e-12	0.6789552902885675
2.11385693359375	3.1012991859194074e-12	0.5822822402018127
2.09908349609375	9.552531605297814e-13	0.486752255959971
2.06010400390625	2.8679750088880877e-13	0.3966107332899643
1.97630859375	8.392943572505899e-14	0.3149945316967627
1.9198577880859375	2.394061514095652e-14	0.24385048692652406
1.8719774169921874	6.6563840049803625e-15	0.1840035919677193
1.86379248046875	1.8039458325928044e-15	0.1353352832366127
1.8596082763671875	4.765304735299156e-16	0.09702370004128698
1.85764453125	1.2269868983798635e-16	0.06779953109924779
1.866251708984375	3.079436362031953e-17	0.04618039137973471
1.864655029296875	7.533288557462739e-18	0.030659889794007474
1.8652606201171875	1.796304814270403e-18	0.019841094744370243
1.8564517822265625	4.175010055850544e-19	0.012515342341223635
1.88776025390625	9.458386988221946e-20	0.007694880818387451
2.099413818359375	2.0886164474088106e-20	0.004611509662433027
2.89398193359375	4.4955452089185905e-21	0.0026938065804214782
3.283650146484375	9.431659347155082e-22	0.0015338106793244565
2.47911669921875	1.9287498479639178e-22	0.0008512540013104941
0.8774458618164063	0.019841094744370298	4.175010055850544e-19
1.347881103515625	0.03065988979400756	1.796304814270403e-18
1.9399349365234375	0.04618039137973475	7.533288557462739e-18
2.1115078125	0.06779953109924783	3.079436362031953e-17
2.133456787109375	0.09702370004128709	1.2269868983798635e-16
2.173647705078125	0.13533528323661276	4.765304735299156e-16
2.193100830078125	0.1840035919677199	1.8039458325928044e-15
2.220096435546875	0.24385048692652475	6.65638400498055e-15
2.255883056640625	0.31499453169676345	2.3940615140956863e-14
2.294422119140625	0.3966107332899651	8.392943572505959e-14
2.3332734375	0.48675225595997185	2.867975008888098e-13
2.394917724609375	0.5822822402018134	9.552531605297883e-13
2.450414306640625	0.678955290288568	3.101299185919429e-12
2.5310712890625	0.7716686738745263	9.814109704065061e-12
2.621307861328125	0.8548750167246698	3.0271937126909975e-11
2.712315673828125	0.923116346386636	9.101470764488001e-11
2.80002001953125	0.9716107671891228	2.667257870669027e-10
2.878364501953125	0.996805114543033	7.61904420899172e-10
2.922849609375	0.996805114543033	2.1213779139165976e-09
2.926336669921875	0.9716107671891226	5.757284007027194e-09
2.8680322265625	0.9231163463866356	1.5229979744712682e-08
2.744248046875	0.8548750167246695	3.9270195107844254e-08
2.558984619140625	0.7716686738745262	9.869811391105965e-08
2.39097216796875	0.6789552902885677	2.417890947674731e-07
2.24621142578125	0.5822822402018133	5.773599123465949e-07
2.15221240234375	0.48675225595997157	1.343812277631526e-06
2.0897607421875	0.3966107332899649	3.0486856336898723e-06
2.05880078125	0.31499453169676317	6.741689478400731e-06
2.0389990234375	0.24385048692652442	1.4531381583631438e-05
2.0339705810546875	0.1840035919677199	3.0530022934678544e-05
2.0307222900390625	0.1353352832366127	6.252150377482037e-05
2.03426416015625	0.09702370004128698	0.00012479976313343764
2.0327225341796873	0.06779953109924779	0.00024281760334162798
2.0316767578125	0.04618039137973471	0.00046049894189605176
2.0399718017578126	0.030659889794007474	0.0008512540013105025
2.044156005859375	0.019841094744370298	0.001533810679324466
2.058342041015625	0.01251534234122367	0.002693806580421495
2.059663330078125	0.007694880818387471	0.004611509662433051
2.067829833984375	0.004611509662433039	0.007694880818387493
2.06344384765625	0.0026938065804214878	0.012515342341223704
2.064343017578125	0.0015338106793244607	0.01984109474437035
2.06414111328125	0.0008512540013104993	0.03065988979400756
2.061755615234375	0.00046049894189605014	0.046180391379734814
2.05839697265625	0.00024281760334162714	0.06779953109924793
2.050065185546875	0.0001247997631334372	0.09702370004128717
2.046174560546875	6.252150377482015e-05	0.13533528323661292
2.0437154541015623	3.0530022934678436e-05	0.18400359196772018
2.03241064453125	1.4531381583631387e-05	0.24385048692652475
2.0276024169921874	6.741689478400708e-06	0.31499453169676356
2.0234366455078123	3.048685633689856e-06	0.3966107332899654
2.021729736328125	1.343812277631519e-06	0.48675225595997207
2.0118746337890623	5.773599123465918e-07	0.5822822402018138
2.0105533447265627	2.4178909476747177e-07	0.6789552902885686
2.0105902099609376	9.86981139110593e-08	0.7716686738745268
2.0077637939453123	3.927019510784397e-08	0.85487501672467
2.004423828125	1.522997974471252e-08	0.9231163463866363
2.0218582763671873	5.757284007027132e-09	0.9716107671891232
2.0348148193359377	2.1213779139165976e-09	0.996805114543033
2.0950458984375	7.619044208991666e-10	0.996805114543033
2.1148662109375	2.667257870669008e-10	0.9716107671891226
2.13308984375	9.101470764487969e-11	0.9231163463866356
2.172583251953125	3.0271937126909755e-11	0.8548750167246694
2.190109375	9.81410970406499e-12	0.7716686738745258
2.167830078125	3.1012991859194074e-12	0.6789552902885675
2.115655517578125	9.552531605297814e-13	0.5822822402018127
2.047789794921875	2.8679750088880877e-13	0.486752255959971
1.996000244140625	8.392943572505899e-14	0.3966107332899643
1.9429630126953126	2.394061514095652e-14	0.3149945316967627
1.9408525390625	6.6563840049803625e-15	0.24385048692652406
1.9345211181640625	1.8039458325928044e-15	0.1840035919677199
1.940558837890625	4.765304735299156e-16	0.1353352832366127
1.94107275390625	1.2269868983798635e-16	0.09702370004128698
1.941054443359375	3.079436362031953e-17	0.06779953109924779
1.9434586181640625	7.533288557462739e-18	0.04618039137973471
1.938044677734375	1.796304814270403e-18	0.030659889794007474
1.96149853515625	4.175010055850544e-19	0.019841094744370243
2.235787353515625	9.458386988221946e-20	0.012515342341223635
3.047074462890625	2.0886164474088106e-20	0.007694880818387451
3.390054931640625	4.4955452089185905e-21	0.004611509662433027
2.43217236328125	9.431659347155082e-22	0.0026938065804214782
0.8984588623046875	0.019841094744370298	8.687774147040263e-19
1.4687105712890625	0.03065988979400756	3.6903882668765605e-18
2.051184814453125	0.04618039137973475	1.5279799682872937e-17
2.209856201171875	0.06779953109924783	6.16659351490994e-17
2.233236572265625	0.09702370004128709	2.4258002935511285e-16
2.253570556640625	0.13533528323661276	9.301368016640084e-16
2.29034814453125	0.1840035919677199	3.476327411194989e-15
2.31341650390625	0.24385048692652475	1.2664165549094176e-14
2.34771630859375	0.31499453169676345	4.4969136320232955e-14
2.3910087890625	0.3966107332899651	1.5564478550463747e-13
2.433732177734375	0.48675225595997185	5.250935277974171e-13
2.4826953125	0.5822822402018134	1.72671561546875e-12
2.557002685546875	0.678955290288568	5.534610071700974e-12
2.631805419921875	0.7716686738745263	1.7291604867152204e-11
2.716995361328125	0.8548750167246698	5.2658154923891826e-11
2.80275439453125	0.923116346386636	1.5630685836019022e-10
2.89724853515625	0.9716107671891228	4.522436647695059e-10
2.969023193359375	0.996805114543033	1.2754076295260396e-09
3.007452392578125	0.996805114543033	3.5059651170419904e-09
3.010241943359375	0.9716107671891226	9.39394973604947e-09
2.9519560546875	0.9231163463866356	2.4534145397154446e-08
2.824115966796875	0.8548750167246695	6.245622035317678e-08
2.64402783203125	0.7716686738745262	1.549753135702883e-07
2.46894970703125	0.6789552902885677	3.7482746881752084e-07
2.338191650390625	0.5822822402018133	8.836542241315566e-07
2.23567724609375	0.48675225595997157	2.0305578494036726e-06
2.179832275390625	0.3966107332899649	4.548104523682639e-06
2.1556259765625	0.31499453169676317	9.929504305851047e-06
2.137218994140625	0.24385048692652442	2.113035343044194e-05
2.1375126953125	0.1840035919677199	4.382965126946289e-05
2.124574462890625	0.1353352832366127	8.861583426604892e-05
2.132447509765625	0.09702370004128698	0.00017463717883977855
2.13277783203125	0.06779953109924779	0.0003354626279025107
2.126996826171875	0.04618039137973471	0.0006281070149764959
2.134759765625	0.030659889794007474	0.0011463182433300535
2.144376220703125	0.019841094744370298	0.00203919531984227
2.150395751953125	0.01251534234122367	0.00353585550150756
2.160287353515625	0.007694880818387471	0.005976022895005923
2.166050048828125	0.004611509662433039	0.009844916976392417
2.15981005859375	0.0026938065804214878	0.015808618705241806
2.158892578125	0.0015338106793244607	0.02474331320515426
2.156800537109375	0.0008512540013104993	0.037748860091298846
2.1585625	0.00046049894189605014	0.05613476283413355
2.156507080078125	0.00024281760334162714	0.0813658196645251
2.151625244140625	0.0001247997631334372	0.11495667048603483
2.147899658203125	6.252150377482015e-05	0.15831002262193852
2.138668701171875	3.0530022934678436e-05	0.21250282427502182
2.1238037109375	1.4531381583631387e-05	0.2780373004531935
2.1205185546875	6.741689478400708e-06	0.3545875485608983
2.114499267578125	3.048685633689856e-06	0.4407841408053239
2.107268310546875	1.343812277631519e-06	0.5340851477595165
2.10570849609375	5.773599123465918e-07	0.6307788205474278
2.107984130859375	2.4178909476747177e-07	0.7261490370736906
2.099285400390625	9.86981139110593e-08	0.8148102621687291
2.09979931640625	3.927019510784397e-08	0.8911878885041843
2.094880859375	1.522997974471252e-08	0.9500886338026269
2.10391015625	5.757284007027132e-09	0.9872815715902905
2.11515966796875	2.1213779139165976e-09	1.0
2.149808349609375	7.619044208991666e-10	0.9872815715902907
2.19139404296875	2.667257870669008e-10	0.9500886338026274
2.225675537109375	9.101470764487969e-11	0.8911878885041852
2.247587890625	3.0271937126909755e-11	0.8148102621687301
2.286475830078125	9.81410970406499e-12	0.7261490370736916
2.269977294921875	3.1012991859194074e-12	0.6307788205474288
2.233695556640625	9.552531605297814e-13	0.5340851477595175
2.159718505859375	2.8679750088880877e-13	0.4407841408053249
2.096789306640625	8.392943572505899e-14	0.3545875485608993
2.034576171875	2.394061514095652e-14	0.2780373004531943
2.027951171875	6.6563840049803625e-15	0.21250282427502212
2.0258040771484374	1.8039458325928044e-15	0.15831002262193933
2.0267215576171873	4.765304735299156e-16	0.11495667048603549
2.028153076171875	1.2269868983798635e-16	0.08136581966452558
2.028373291015625	3.079436362031953e-17	0.0561347628341339
2.036539794921875	7.533288557462739e-18	0.037748860091299116
2.0275474853515627	1.796304814270403e-18	0.024743313205154382
2.061810546875	4.175010055850544e-19	0.015808618705241893
2.14294482421875	9.458386988221946e-20	0.009844916976392469
2.853736083984375	2.0886164474088106e-20	0.005976022895005958
3.4246484375	4.4955452089185905e-21	0.0035358555015075816
2.963701171875	9.431659347155082e-22	0.0020391953198422826
1.273206787109375	0.019841094744370298	8.687774147040263e-19
1.336301025390625	0.03065988979400756	3.6903882668765605e-18
2.0147010498046876	0.04618039137973475	1.5279799682872937e-17
2.25992041015625	0.06779953109924783	6.16659351490994e-17
2.306277587890625	0.09702370004128709	2.4258002935511285e-16
2.328483642578125	0.13533528323661276	9.301368016640084e-16
2.3526162109375	0.1840035919677199	3.476327411194989e-15
2.37777685546875	0.24385048692652475	1.2664165549094176e-14
2.411361083984375	0.31499453169676345	4.4969136320232955e-14
2.450505859375	0.3966107332899651	1.5564478550463747e-13
2.49299072265625	0.48675225595997185	5.250935277974171e-13
2.53934814453125	0.5822822402018134	1.72671561546875e-12
2.606406005859375	0.678955290288568	5.534610071700974e-12
2.6729140625	0.7716686738745263	1.7291604867152204e-11
2.763701171875	0.8548750167246698	5.2658154923891826e-11
2.853424072265625	0.923116346386636	1.5630685836019022e-10
2.935787841796875	0.9716107671891228	4.522436647695059e-10
3.01167333984375	0.996805114543033	1.2754076295260396e-09
3.0625634765625	0.996805114543033	3.5059651170419904e-09
3.083062744140625	0.9716107671891226	9.39394973604947e-09
3.041458740234375	0.9231163463866356	2.4534145397154446e-08
2.924996826171875	0.8548750167246695	6.245622035317678e-08
2.7690966796875	0.7716686738745262	1.549753135702883e-07
2.586255859375	0.6789552902885677	3.7482746881752084e-07
2.441751953125	0.5822822402018133	8.836542241315566e-07
2.333236572265625	0.48675225595997157	2.0305578494036726e-06
2.2640126953125	0.3966107332899649	4.548104523682639e-06
2.2325576171875	0.31499453169676317	9.929504305851047e-06
2.20974609375	0.24385048692652442	2.113035343044194e-05
2.19935888671875	0.1840035919677199	4.382965126946289e-05
2.20350634765625	0.1353352832366127	8.861583426604892e-05
2.191136962890625	0.09702370004128698	0.00017463717883977855
2.20102880859375	0.06779953109924779	0.0003354626279025107
2.19515625	0.04618039137973471	0.0006281070149764959
2.21262744140625	0.030659889794007474	0.0011463182433300535
2.21888525390625	0.019841094744370298	0.00203919531984227
2.224831298828125	0.01251534234122367	0.00353585550150756
2.229437744140625	0.007694880818387471	0.005976022895005923
2.2298232421875	0.004611509662433039	0.009844916976392417
2.231530029296875	0.0026938065804214878	0.015808618705241806
2.234337890625	0.0015338106793244607	0.02474331320515426
2.2319521484375	0.0008512540013104993	0.037748860091298846
2.228593505859375	0.00046049894189605014	0.05613476283413355
2.22020654296875	0.00024281760334162714	0.0813658196645251
2.21279248046875	0.0001247997631334372	0.11495667048603483
2.20677294921875	6.252150377482015e-05	0.15831002262193852
2.201450927734375	3.0530022934678436e-05	0.21250282427502182
2.191228759765625	1.4531381583631387e-05	0.2780373004531935
2.180676513671875	6.741689478400708e-06	0.3545875485608983
2.174143310546875	3.048685633689856e-06	0.4407841408053239
2.178767822265625	1.343812277631519e-06	0.5340851477595165
2.16283837890625	5.773599123465918e-07	0.6307788205474278
2.163076904296875	2.4178909476747177e-07	0.7261490370736906
2.162820068359375	9.86981139110593e-08	0.8148102621687291
2.1714453125	3.927019510784397e-08	0.8911878885041843
2.200661865234375	1.522997974471252e-08	0.9500886338026269
2.23800830078125	5.757284007027132e-09	0.9872815715902905
2.269261474609375	2.1213779139165976e-09	1.0
2.290109375	7.619044208991666e-10	0.9872815715902907
2.32402392578125	2.667257870669008e-10	0.9500886338026274
2.33995361328125	9.101470764487969e-11	0.8911878885041852
2.318922119140625	3.0271937126909755e-11	0.8148102621687301
2.2481201171875	9.81410970406499e-12	0.7261490370736916
2.188714599609375	3.1012991859194074e-12	0.6307788205474288
2.115269775390625	9.552531605297814e-13	0.5340851477595175
2.091045166015625	2.8679750088880877e-13	0.4407841408053249
2.084548828125	8.392943572505899e-14	0.3545875485608993
2.08379638671875	2.394061514095652e-14	0.2780373004531943
2.07874951171875	6.6563840049803625e-15	0.21250282427502212
2.081025146484375	1.8039458325928044e-15	0.15831002262193933
2.087870361328125	4.765304735299156e-16	0.11495667048603549
2.08678759765625	1.2269868983798635e-16	0.08136581966452558
2.120353515625	3.079436362031953e-17	0.0561347628341339
2.11649951171875	7.533288557462739e-18	0.037748860091299116
2.544358154296875	1.796304814270403e-18	0.024743313205154382
3.37783251953125	4.175010055850544e-19	0.015808618705241893
3.396955322265625	9.458386988221946e-20	0.009844916976392469
1.9136365966796876	2.0886164474088106e-20	0.005976022895005958
1.0064971923828125	0.019841094744370298	3.6903882668765605e-18
1.8064425048828125	0.03065988979400756	1.5279799682872937e-17
2.252634521484375	0.04618039137973475	6.16659351490994e-17
2.34320166015625	0.06779953109924783	2.4258002935511285e-16
2.364141357421875	0.09702370004128709	9.301368016640084e-16
2.379850830078125	0.13533528323661276	3.476327411194989e-15
2.414022216796875	0.1840035919677199	1.2664165549094176e-14
2.4469638671875	0.24385048692652475	4.4969136320232955e-14
2.47911669921875	0.31499453169676345	1.55644785504638e-13
2.51758251953125	0.3966107332899651	5.250935277974171e-13
2.559572021484375	0.48675225595997185	1.72671561546875e-12
2.6231982421875	0.5822822402018134	5.534610071700974e-12
2.68620068359375	0.678955290288568	1.7291604867152204e-11
2.765316162109375	0.7716686738745263	5.2658154923891826e-11
2.8515888671875	0.8548750167246698	1.5630685836019022e-10
2.937421142578125	0.923116346386636	4.522436647695059e-10
3.0274560546875	0.9716107671891228	1.2754076295260396e-09
3.088219482421875	0.996805114543033	3.505965117042003e-09
3.11310498046875	0.996805114543033	9.39394973604947e-09
3.0975791015625	0.9716107671891226	2.4534145397154446e-08
3.019931884765625	0.9231163463866356	6.245622035317723e-08
2.863719482421875	0.8548750167246695	1.549753135702883e-07
2.6824384765625	0.7716686738745262	3.7482746881752084e-07
2.528226806640625	0.6789552902885677	8.836542241315566e-07
